sec,SCL,SCR,BVP,PVA,HR,MOTION
0,2.3259681940078734,0.0010000000474974,60.0164834022522,0.0,30.0,2.4775263547897337
1,2.537537813186645,0.0010000000474974,51.52075710296631,0.0,30.0,0.0
2,2.548791497945785,0.0010000000474974,50.62576303482056,0.0,30.0,0.0
3,2.5448622047901157,0.0806889361701905,51.087911987304686,0.0,30.0,0.0
4,2.529374051094055,0.1557484535034745,48.82295513153076,0.0,30.0,0.0
5,2.521324872970581,-0.0109543323924298,50.31074485778809,1.1355311393737793,34.65564594268799,0.0
6,2.519035851955414,-0.0156137336045503,49.95115985870361,7.570207595825195,61.03763961791992,0.0
7,2.5134662687778477,-0.015829298342578,50.17887630462646,6.74969482421875,55.99626541137695,0.0
8,2.506714105606079,-0.0148163727484642,51.18803396224976,8.189255428314208,61.64555053710937,0.0
9,2.500686675310135,-0.014282160392031,50.23748483657837,12.542124843597412,81.11893520355224,0.0
10,2.4927518546581267,-0.0166980223730205,49.05738725662231,13.914529705047608,98.8359619140625,0.0
11,2.4871440649032595,-0.0161458024289458,50.32844944000245,13.223443508148192,100.76426315307616,0.0
12,2.4813837230205538,-0.0154738382669165,50.56654453277588,21.794261026382447,98.27652797698974,0.0
13,2.474593353271485,-0.0158942082431166,52.10866899490357,27.0268620967865,97.27270488739012,0.0154463725164532
14,2.468642234802246,-0.0153672446031122,47.02686185836792,33.80341882705689,96.97363319396972,0.0316111808642744
15,2.462881863117218,-0.0150130198802798,51.902320289611815,38.73199100494385,97.83141212463376,0.0
16,2.4539170384407045,-0.0176990346983074,47.726495552062985,37.0128210067749,101.44488716125488,0.0
17,2.4468596160411837,-0.0178718365728854,49.058608531951904,34.822345924377444,102.507320022583,0.0
18,2.4390011548995973,-0.0187624805606901,47.84615392684937,30.769230222702028,103.00897159576417,0.0
19,2.430379664897919,-0.0200459462124853,52.30402908325196,22.67643456459045,113.21006546020509,0.0
20,2.423741841316223,-0.018844748660922,49.52564077377319,22.7234429359436,125.13391609191896,0.0
21,2.419660085439681,-0.0155735847773029,49.80219774246216,27.79975633621216,115.59299392700196,0.0
22,2.416531801223755,-0.0122630232945084,51.768620014190674,28.59035487174988,111.06824474334717,0.0
23,2.410466343164444,-0.012485636700876,47.19474964141845,31.509157371520995,109.97708377838134,0.0
24,2.400509661436081,-0.0166576024843379,48.633088970184325,36.08241710662842,106.9854543685913,0.0
25,2.392879980802536,-0.0181768644601106,50.99511594772339,36.56410264968872,102.23835468292236,0.0028737436980009
26,2.3859370410442358,-0.0187581609934568,46.36141648292541,35.51892566680908,99.72195663452148,0.0143687184900045
27,2.379566377401352,-0.0179653681349008,57.66971926689148,27.634310960769653,101.90384979248049,0.2166084259748458
28,2.373615235090256,-0.0164329826133325,50.76984162330628,26.5201473236084,102.0408172607422,0.1902059061452746
29,2.3679692924022677,-0.014973779185675,47.56898670196533,44.07509260177612,103.234912109375,0.0276597835123538
30,2.4076433718204497,0.0276001968755735,45.61965799331665,34.740537118911746,108.2388376235962,0.0
31,2.507057398557663,0.1134304495528339,52.753357601165774,33.20940160751343,108.75569515228273,0.0
32,2.5588625848293303,0.1336141576990484,47.42735033035278,31.56776580810547,108.75233459472656,0.0
33,2.552262973785401,0.0908014433458446,50.50305261611938,32.97802267074585,110.05986862182615,0.0
34,2.539368879795074,0.0428797093220054,50.5976806640625,36.504272651672366,105.65866203308106,0.0
35,2.5287636876106263,0.0017563939785759,48.76861991882324,30.120879173278816,96.7870231628418,0.0
36,2.519188505411148,-0.0210312647279351,50.38339424133301,27.86324787139893,91.9596429824829,0.0
37,2.509193700551987,-0.0258139215409755,49.91330919265747,25.239316415786742,92.05184841156006,0.0
38,2.5004196226596838,-0.0238205621950327,50.76800928115845,26.83455429077149,99.39997539520265,0.0
39,2.5249870121479034,0.0082330798417387,47.42124538421631,30.799755859374997,107.04323081970216,0.0
40,2.585795170068741,0.0643506132066249,45.20757036209106,33.78144030570984,107.17460231781006,0.0
41,2.5845744132995607,0.0495927675627171,49.10439567565918,34.604397010803225,98.27186546325684,0.0
42,2.5518814623355865,0.0063647125818533,48.82417602539063,32.903541564941406,84.23383026123047,0.0
43,2.5315484941005706,-0.0212548726936801,50.74236869812012,30.354089736938484,80.8080825805664,0.0
44,2.5175862908363342,-0.0385180604644119,51.55860824584961,30.10073208808899,80.53669261932373,0.0
45,2.506523334980012,-0.0403581678867339,48.44810733795166,26.33455429077149,79.37533569335938,0.0
46,2.4974822282791136,-0.0314692894928156,50.662393283844,24.46520185470581,83.06079807281495,0.0
47,2.489928889274597,-0.0243763708043842,48.45116004943848,25.689865112304688,87.47269039154052,0.0
48,2.482184815406799,-0.0212441977579145,50.6990234375,27.081807327270507,93.52337245941162,0.0
49,2.47611927986145,-0.0182783467229455,49.93467645645141,28.22893829345703,98.32388038635254,0.0
50,2.4700155675411226,-0.0167236002162098,51.99023170471192,29.97191677093506,102.4641284942627,0.0
51,2.461699253320694,-0.0177818170282988,49.54273509979248,31.92918109893799,104.2123908996582,0.0
52,2.456472933292389,-0.0160888212034478,51.26434679031372,35.47618942260742,104.47587203979492,0.0114949747920036
53,2.4500640630722046,-0.0159658400109037,47.91514015197754,38.859585189819335,103.38784408569336,0.0
54,2.4439985752105717,-0.0156119189923628,47.94749717712402,38.91697235107422,94.16260623931883,0.0168832443654537
55,2.439115583896637,-0.0141272720880806,45.10195322036744,38.0463981628418,87.86374053955078,0.0161648087203502
56,2.4324778079986573,-0.0147727035451679,52.805860710144046,37.699023723602295,82.8660270690918,0.0
57,2.428090810775757,-0.0134067739592864,51.10500612258911,36.40781555175781,81.27991409301758,0.0
58,2.4247337579727173,-0.0114303350215777,50.20329666137695,33.21123504638672,81.94515380859374,0.0
59,2.41695151925087,-0.0140462020644917,52.15934076309204,30.3186815738678,84.65890789031982,0.0
60,2.341532629728317,-0.0795768513809888,50.344933319091794,27.33211269378662,90.4719081878662,0.0100581029430031
61,2.1699804604053496,-0.2140421722084284,48.751526260375975,26.807693004608154,99.71970977783204,0.0100581029430031
62,2.1256141662597656,-0.1995762057602405,45.56166067123413,31.7808301448822,103.33522624969484,0.0043106155470013
63,2.1250419616699223,-0.140244947001338,51.71611728668213,34.38461627960205,100.6979564666748,0.0
64,2.1204260170459746,-0.0850669651292264,49.72893733978272,36.33821678161621,94.99011154174806,0.0
65,2.11355938911438,-0.0369022254366427,50.03052492141724,31.10256414413452,90.54925575256348,0.0
66,2.106769025325775,-0.0155675530433654,49.6459095954895,27.75824146270752,89.79526481628417,0.0
67,2.102381944656372,-0.0136427630204706,49.74847393035888,23.81807050704956,93.9151319503784,0.0
68,2.0973845720291138,-0.0134957438334822,51.283882999420165,27.848596239089964,102.44683589935303,0.0172424621880054
69,2.093111991882324,-0.0121797925326972,49.47374868392944,30.682540130615237,108.28647708892822,0.0057474873960018
70,2.090632385015488,-0.0096499751787632,45.56837615966797,32.234432220458984,105.58307495117188,0.0
71,2.085558652877808,-0.0103776772972195,48.2698413848877,33.88400363922119,99.19466705322266,0.0
72,2.0786919593811035,-0.0128017016686498,47.25641021728516,34.11416292190552,92.46562671661376,0.0
73,2.073007869720459,-0.0136207808041944,52.30586080551147,34.61904773712158,89.04719543457031,0.0
74,2.0681630790233614,-0.0135526047088205,50.15079355239868,32.65567626953125,88.42806510925293,0.0
75,2.063203811645508,-0.0133242470677941,50.89682512283325,29.72954797744751,92.16348781585694,0.0
76,2.058282661437988,-0.0126321610994636,51.540293025970456,27.63125705718994,95.95660743713378,0.0057474873960018
77,2.0546586513519287,-0.0111219519982114,50.52503051757813,26.43895001411438,102.21065464019776,0.0
78,2.049699378013611,-0.0114118541823699,51.13308916091919,29.802197456359863,108.74383487701417,0.0229899495840072
79,2.045121669769287,-0.0113508905749767,46.69597063064575,34.975579261779785,111.6086835861206,0.0057474873960018
80,2.038941633701324,-0.012811056151986,50.68376035690308,38.648353099823,104.5320484161377,0.0
81,2.033104920387268,-0.0137090080883353,47.96275997161865,39.10622749328613,92.81466979980468,0.0
82,2.0276497840881347,-0.0139590808190404,47.33211240768433,39.22893848419189,85.3359338760376,0.0
83,2.022423487901688,-0.0137365360744297,50.5811972618103,36.228938007354735,82.91474628448486,0.0
84,2.0173115730285645,-0.0132842608960344,48.226495552062985,35.05250120162964,84.23028869628907,0.0
85,2.011551207304001,-0.0134969668928533,50.92124557495117,34.498778343200684,90.22995491027832,0.0
86,2.0060197949409484,-0.01366291672457,52.90476188659668,31.04639811515808,94.85279426574706,0.0
87,1.9999541848897933,-0.0142482600174843,51.87912120819092,31.085469436645504,101.19782695770265,0.0
88,1.994155704975128,-0.0144137036055325,49.90231971740722,35.962149715423585,106.31433601379396,0.0229899495840072
89,2.0178075611591337,0.0130121598078403,48.18986549377441,39.32234525680542,104.26479167938234,0.0
90,2.074228638410568,0.0626608774997293,47.51526279449463,42.649573516845706,101.41035194396972,0.0
91,2.0841853618621826,0.0577747960574924,47.42246627807617,43.78754682540894,93.06991081237793,0.0
92,2.082049000263214,0.0396690214984118,48.098900985717776,39.6923080444336,89.43103866577148,0.0
93,2.0785012245178223,0.0194059690693392,51.73199014663696,36.44810752868652,88.8731300354004,0.0
94,2.075258660316467,0.0010070676040413,51.97374858856201,32.08913288116455,93.02484760284425,0.0
95,2.0713675022125244,-0.0079320249613374,50.55311326980591,32.271673965454106,100.70093212127684,0.0
96,2.070680856704712,-0.0061845302348955,46.94932851791382,35.18925476074219,106.0270736694336,0.0
97,2.0692694187164307,-0.0050333999330177,47.613553047180176,37.29975624084473,104.29603252410888,0.0
98,2.0655308425426484,-0.0062039582524448,50.24542102813721,36.67765522003175,99.43030471801758,0.0
99,2.0601138174533844,-0.0088044651667587,51.36385850906372,32.194749689102174,92.17602462768556,0.0
100,2.055078268051148,-0.0107123262248932,53.57753372192383,28.832723236083982,90.29614486694337,0.0
101,2.0496231377124787,-0.0124862736091017,51.9529914855957,23.76068353652954,93.49942417144774,0.0
102,2.0435575544834137,-0.0138154560234397,48.75152635574341,29.92307629585266,102.71945362091064,0.0
103,2.0412686347961424,-0.0108878680970519,45.54395608901977,35.0341875076294,109.58020629882812,0.0395139764994382
104,2.0793786346912384,0.0287038693335488,47.03052520751953,34.919413566589355,108.426446723938,0.0129318468272685
105,2.149952709674835,0.0875419367104768,49.90964603424072,34.96336889266968,98.7705898284912,0.0
106,2.1824931144714355,0.0963690940290689,50.81196594238281,32.442001533508304,90.25899543762208,0.0
107,2.1758934438228605,0.0628445629030465,49.45848569869995,22.634920263290404,86.06130104064941,0.0
108,2.15922269821167,0.0209755626216064,50.88644704818726,20.66849789619446,87.30936069488526,0.0
109,2.1513259649276733,-0.006545245090092,48.17704496383667,19.929182147979738,92.2516590118408,0.0
110,2.150372266769409,-0.014473663130775,49.39377307891846,19.94993915557861,95.41209983825684,0.0
111,2.1499907970428467,-0.0107770398142747,49.32905988693237,20.22222185134888,101.01648845672608,0.0
112,2.149571180343628,-0.0048137597041204,51.29731349945068,21.482905864715576,104.65891494750976,0.0
113,2.150791883468628,-0.0002332165109692,51.68681297302246,20.88705768585205,109.82598628997803,0.0
114,2.1511733531951904,0.0007704121846472,53.75152616500854,25.53357810974121,113.42521362304689,0.0
115,2.146672010421753,-0.0034137657639802,50.21306486129761,32.12820568084717,115.28881206512452,0.0172424621880054
116,2.144039648771286,-0.0049958141287788,45.24297904968262,36.04578800201416,112.64255695343016,0.0158055901527404
117,2.142094135284424,-0.0056955564767121,45.935897254943846,40.42429895401001,101.11201095581052,0.0493924695998429
118,2.136982315778732,-0.0086965768248773,48.759463214874266,40.14346714019776,87.55812454223633,0.0014368718490004
119,2.135570800304413,-0.0069509761931839,48.9755802154541,36.52930402755738,80.70981330871582,0.0
120,2.1538056552410128,0.0127163884213586,48.606837558746335,37.069597244262695,79.60206985473633,0.0
121,2.2098071217536925,0.0615058969706296,52.30891332626343,38.51587247848511,80.08764839172363,0.0
122,2.2397152960300444,0.074093528650701,49.34065942764282,34.83028039932251,80.97742538452148,0.0
123,2.2293389678001403,0.0444310004357248,50.16849822998047,31.257020616531378,82.57557697296143,0.0
124,2.2129734456539154,0.0110864420750658,49.05799760818481,30.7399263381958,90.24331760406494,0.0
125,2.201109308004379,-0.0136875393567606,51.299755859375,27.5384617805481,97.51219596862792,0.0
126,2.1955015659332275,-0.0226892719510942,51.68803434371948,29.910256576538085,104.22756252288818,0.0211938597261905
127,2.19180116057396,-0.0191310350783169,48.64957256317139,35.29304122924805,109.76612491607666,0.0093396671116352
128,2.189931869506836,-0.0119742074981331,48.58730154037475,39.84859628677368,108.3680507659912,0.0
129,2.189970016479492,-0.0057297297986223,46.47008562088013,42.3540901184082,103.31359558105468,0.0
130,2.1869564056396484,-0.0052036648674401,48.65140428543091,40.01770467758179,97.69987297058104,0.0
131,2.182836413383484,-0.0066820701118558,50.00305261611938,35.634309959411624,95.41158294677734,0.0
132,2.1792886257171635,-0.0077899047406389,51.36507930755615,36.54822959899902,97.48606281280516,0.0
133,2.1765801906585693,-0.0078932648873887,51.600732421875,34.81562805175781,101.77344818115236,0.0
134,2.175779062509537,-0.0059243778465315,48.760072994232175,35.6507926940918,107.7692413330078,0.0
135,2.1744818747043606,-0.0044677175406831,50.47191724777222,38.774724102020265,111.62042922973632,0.0086212310940027
136,2.17444372177124,-0.0024686404503881,48.49633750915528,38.64285697937012,113.71042137145996,0.0086212310940027
137,2.175855302810669,0.0002246788528282,49.97191648483276,35.18437156677246,114.3566270828247,0.0071843592450022
138,2.180585622787476,0.0048512753855902,52.01159934997558,37.34371309280395,114.50381469726562,0.0244268216192722
139,2.1814630031585693,0.0046411037445067,46.99816865921021,37.85225896835328,111.74493923187256,0.0386159308254718
140,2.1797082424163823,0.0017813523678341,49.37851037979126,37.885837650299074,103.53143482208252,0.0292762637138366
141,2.1774193823337558,-0.0013968771490908,45.63797292709351,38.56166076660156,89.64096622467041,0.0323296166956424
142,2.1697897315025325,-0.0088303435477427,46.81929197311401,37.9682544708252,85.06668510437012,0.0
143,2.1595278918743133,-0.0163979169679805,51.4395604133606,37.32967014312744,83.04819107055664,0.0
144,2.1483886361122133,-0.0219130372628569,49.25885200500488,38.10256366729736,82.82466259002686,0.0
145,2.1403775036334998,-0.0226766083855181,51.36202707290649,31.213064098358156,86.43240127563476,0.0
146,2.1318323075771333,-0.022703222092241,51.305250358581546,28.456654644012453,91.54799118041991,0.0
147,2.123172676563263,-0.0220722488127648,49.23748483657837,27.167277336120605,96.84236907958984,0.0
148,2.115581250190735,-0.0205648955889045,50.600122165679934,28.17582483291626,102.7629825592041,0.0
149,2.1088290214538574,-0.0189233370590954,50.77777757644653,29.025030279159544,106.60703754425047,0.0
150,2.105090475082397,-0.0152341229608282,49.65262479782105,30.40415115356445,110.849871635437,0.0
151,2.1007416248321533,-0.0129384971689432,49.22771663665772,30.498167991638184,113.07616672515869,0.0
152,2.096469002962112,-0.0114492913242428,51.815018272399904,31.81562848091125,114.3425064086914,0.0
153,2.0972319662570955,-0.0060158670326927,51.39865665435791,34.695359992980954,115.3851432800293,0.0
154,2.1063112318515778,0.0051035350195888,49.06043949127197,39.17704582214356,115.41164627075196,0.0258636936545371
155,2.1136738479137422,0.0117767807794734,45.9377290725708,40.98596019744873,109.7391269683838,0.0201162058860063
156,2.1161534786224365,0.0117200009757652,46.1385835647583,42.17094039916992,99.80167274475096,0.0028737436980009
157,2.111499392986297,0.0039585720939157,52.5244197845459,41.06349048614502,86.37219772338867,0.0
158,2.1048615992069246,-0.0051031893312028,50.13369941711426,38.51953458786011,80.97699737548828,0.0
159,2.0966979026794434,-0.0131746064871549,51.586690998077394,34.61294326782227,79.9474479675293,0.0
160,2.085062712430954,-0.0209502312820404,49.23443212509155,29.83089160919189,82.48413677215576,0.0
161,2.0770134747028357,-0.0218812439590692,50.20085458755493,30.168498277664185,88.52281551361084,0.0
162,2.0719778537750244,-0.0189414228545501,52.26617851257324,27.426129388809205,96.5512170791626,0.0
163,2.089793092012405,0.0048565323289949,48.56776552200317,33.66972093582153,106.9986515045166,0.0262229116633534
164,2.12275305390358,0.0364867995493113,44.97924308776855,36.147741889953615,109.71019821166992,0.012931846641004
165,2.132366418838501,0.0384511518292128,50.01221017837524,37.25152702331543,106.0511260986328,0.0
166,2.1294671416282656,0.0253072323743253,48.50122098922729,38.713065719604494,99.4932165145874,0.0
167,2.120464152097702,0.0060873937312862,50.66361436843872,37.21856002807617,95.28651847839356,0.0
168,2.114475011825561,-0.0076470352418254,50.93284511566162,32.95604419708252,95.123327255249,0.0
169,2.1112322866916657,-0.0118901193141936,49.827838802337645,29.71916961669922,95.42744827270506,0.0057474873960018
170,2.1123767733573917,-0.0070938774784735,50.53968276977539,25.66666736602784,99.65527153015135,0.0
171,2.155636763572693,0.0367870002286508,50.0982907295227,24.321122932434083,102.72018642425536,0.0
172,2.2334589660167694,0.1002579476684331,51.07387027740479,29.465200853347778,107.7260362625122,0.0247860392555594
173,2.2567674696445463,0.0967705644667148,51.46520128250122,28.443834352493287,111.63749351501464,0.0332276612520217
174,2.246810829639435,0.0591432007029652,53.43467626571656,31.27411541938782,114.98995532989504,0.0
175,2.2809915363788607,0.0641696292906999,49.338827800750735,35.82783975601196,118.49003448486329,0.0089804492890834
176,2.346758931875229,0.0921925937756895,46.73076944351196,39.14957180023193,118.7561450958252,0.0380771046504378
177,2.369571536779404,0.0820714639499783,45.43223428726196,41.54883909225464,108.9078498840332,0.0057474873960018
178,2.3950925886631014,0.0810422224923967,45.40964603424072,43.04578914642334,96.31869888305664,0.0
179,2.3923459470272066,0.0493262255564331,53.381562900543216,41.0067156791687,86.17394256591797,0.0
180,2.369876724481583,0.0020140593682299,50.368742275238034,38.75335903167725,83.22987747192383,0.0
181,2.3375652134418488,-0.0375128605868666,50.10500593185425,36.6739933013916,82.77016830444336,0.0
182,2.3147144973278047,-0.0531227365136145,47.98534784317017,35.92185592651367,84.92492198944092,0.0
183,2.305215638875961,-0.0479984067380427,50.53785095214844,36.695359325408944,90.01644783020019,0.0
184,2.2968993186950684,-0.0370626767165958,50.95116004943848,37.391941452026366,96.44437866210936,0.0
185,2.294534206390381,-0.0222496622707694,49.36935272216797,35.42124662399293,101.78436737060548,0.0
186,2.291787475347519,-0.0129365004366263,52.888278293609616,35.13736219406128,104.29402885437013,0.0
187,2.288621187210083,-0.00918983053416,51.48290557861328,38.75030546188354,107.3566146850586,0.0441838096827268
188,2.286904573440552,-0.0065337112988344,49.33699655532837,43.430403804779054,109.18290729522704,0.0334072709083556
189,2.284005165100098,-0.0063593819271772,43.065323448181154,47.2826623916626,104.9683744430542,0.0201162060722708
190,2.2899182021617888,0.0015743547919555,49.57753381729126,47.741147422790526,97.85952644348146,0.0258636934682726
191,2.318300414085388,0.0279251496773212,48.27167272567749,45.07692260742188,91.19724617004394,0.0100581029430031
192,2.332758605480194,0.0347018123138695,52.45909671783447,43.32600593566895,88.68231201171875,0.0
193,2.328829288482666,0.0220775287132709,49.10622692108154,42.57753353118896,87.70356101989746,0.0
194,2.3231070697307588,0.0081954907800536,50.584249591827394,37.13919496536255,89.0718900680542,0.0
195,2.315439301729202,-0.006245181435679,50.23870582580567,32.60073208808899,93.35242156982422,0.0014368718490004
196,2.307657128572464,-0.0156202631769701,48.70879106521606,31.138584041595458,99.04162483215332,0.0086212310940027
197,2.299951171875,-0.0184468585997819,48.84676427841187,30.691086959838863,103.00612907409668,0.0
198,2.2934660017490387,-0.0179685714654623,49.9297926902771,31.17155084609985,108.31380310058594,0.0
199,2.289841890335083,-0.014693348808214,50.77106246948242,30.92735047340393,111.8909553527832,0.0
200,2.28560751080513,-0.0124923339113592,51.61965799331665,34.37240490913391,115.53984107971192,0.0
201,2.2874004542827606,-0.0056436450395266,50.57387056350708,38.71489686965943,115.83312301635742,0.037717886082828
202,2.2888882160186768,-0.0011190210076164,43.22893786430359,42.02441902160645,113.4698989868164,0.0
203,2.2892696857452397,0.0007796083202265,47.20207614898682,43.199021911621095,105.16713256835938,0.0
204,2.291787385940552,0.0034720579598796,51.699022960662845,44.61904640197754,95.9589786529541,0.0
205,2.2879345297813414,-0.0009646285267251,50.20940160751343,38.82478647232056,90.7376636505127,0.0
206,2.280610084533692,-0.007987712684553,51.16239309310913,34.03540945053101,93.0011142730713,0.0
207,2.2762229621410373,-0.010237696324475,51.60561656951904,33.403540992736815,98.15629062652587,0.0
208,2.270653396844864,-0.0128379740053787,53.61294231414795,32.57387080192566,102.1953145980835,0.0
209,2.262794864177704,-0.0158287712372838,53.92796106338501,34.71306619644166,108.76483383178712,0.0215530777350067
210,2.260620355606079,-0.0121622517239301,45.64224648475647,38.759463500976565,111.74863014221192,0.0
211,2.260086297988892,-0.0079217615420929,46.824786281585695,44.407813262939456,110.51371994018557,0.012931846641004
212,2.255355966091156,-0.0086997038219123,43.16849813461304,46.67460250854492,105.39953155517578,0.0
213,2.24818417429924,-0.0114440853008999,51.89560432434082,46.35409049987793,93.34622955322266,0.0
214,2.2410504519939423,-0.0142047112341969,49.69841289520264,43.17643384933472,87.31322402954102,0.0
215,2.232696008682251,-0.0176788852550088,52.414529705047606,41.01098899841309,86.47892265319824,0.0
216,2.2250664234161377,-0.0188634486403315,49.075701808929445,37.268009281158456,87.19643287658691,0.0071843592450022
217,2.219306004047394,-0.0174553252290933,51.56227140426636,34.23748569488525,92.59139614105224,0.0
218,2.2127064049243925,-0.0169710314832626,51.59706974029541,31.82051334381104,98.6152099609375,0.0
219,2.205916005373001,-0.0166475656442343,53.022588443756106,35.32661800384521,105.50260944366455,0.012931846641004
220,2.201414585113525,-0.0144556453684344,49.67338237762451,41.48962020874024,109.37297668457032,0.012931846641004
221,2.2018723487854,-0.0085081691038794,46.83211221694946,45.14163608551026,105.45474224090576,0.0
222,2.204428195953369,-0.0022133736405521,44.15384616851807,46.79365158081054,99.10578002929688,0.0244268214330076
223,2.201605319976806,-0.0024464334943331,49.49145307540893,46.33028230667114,91.16026897430422,0.0273005656898021
224,2.1994308233261104,-0.0029228448518551,49.36935234069824,45.42368726730346,85.21231479644776,0.0
225,2.198858499526977,-0.0025901771732605,53.857753372192384,44.636751079559325,83.75749645233154,0.0
226,2.2001938521862026,-0.0009718103174236,46.81013431549072,44.64591026306152,86.36998405456544,0.0
227,2.196569681167602,-0.003619782149326,49.84920597076416,41.15140256881714,90.84347438812256,0.0186793342232704
228,2.19119080901146,-0.0071470729191787,50.87973136901856,35.873016357421875,94.97055435180664,0.0
229,2.184247887134552,-0.0115047199185937,50.28815612792969,34.83028144836426,100.06349754333496,0.0
230,2.1813485741615297,-0.0111477347090839,50.77838840484619,36.72771835327149,103.76835250854492,0.0
231,2.175740844011307,-0.0126147017581387,48.76373596191407,38.90476083755493,108.91358184814452,0.0
232,2.1710104942321773,-0.0121703238459303,47.82600712776184,37.43834018707276,112.1242431640625,0.0
233,2.1707434654235835,-0.0078108515008352,50.09279651641846,37.65567855834961,113.86100635528564,0.0
234,2.166165673732757,-0.0086820289958267,51.80708169937134,38.31013526916504,114.42199573516844,0.0
235,2.164639747142792,-0.0064897156913502,51.536630153656006,40.36874294281006,115.48587207794188,0.0143687184900045
236,2.177228611707688,0.0077450999040592,50.9688642501831,42.31501808166504,115.45093154907228,0.0201162058860063
237,2.185392367839813,0.0140758031746371,52.00793619155884,48.18192958831787,111.3842700958252,0.0186793340370058
238,2.200041180849075,0.0246007469482719,45.18070831298828,50.124542999267575,101.60482234954834,0.0493924701586365
239,2.216292315721512,0.032779437303543,47.00915765762329,49.59829177856446,93.10506744384766,0.015087154507637
240,2.2146519243717195,0.0206192007753997,53.09340677261353,49.4664213180542,86.11953067779541,0.0
241,2.2104938030242924,0.0080576646840199,46.98229532241821,50.858973884582525,83.19289970397949,0.0
242,2.205687075853348,-0.0019352342408637,51.769841003417966,47.476189613342285,83.44037532806396,0.0
243,2.2022538185119624,-0.0078436851385049,47.71367521286011,40.29303932189941,85.05221557617188,0.0
244,2.197752273082733,-0.010462223435752,51.90170955657959,38.5189245223999,91.90631332397462,0.0114949747920036
245,2.192907494306564,-0.0110806808341294,50.25946273803711,41.30341854095459,98.73542919158936,0.0
246,2.189016342163086,-0.0105620430316775,47.172771739959714,44.32722854614258,101.55748901367188,0.0043106155470013
247,2.186880111694336,-0.0087526048999279,46.954823112487794,45.3968264579773,99.54064273834229,0.0
248,2.1824930727481844,-0.0093556457664817,50.93650817871094,41.37362613677978,98.94908294677734,0.0
249,2.176274925470352,-0.0113676352426409,51.38156270980835,39.38034076690674,101.36045913696287,0.0
250,2.1726889610290523,-0.0107527097221463,51.2765567779541,39.34798507690429,103.81131973266602,0.0
251,2.169293880462646,-0.0101752371992915,50.56776571273804,42.56410217285156,109.0182056427002,0.0
252,2.165822297334671,-0.0095569199416785,51.03296718597412,43.95054941177368,112.86399879455568,0.0
253,2.1616642475128174,-0.0095008191419764,46.76739892959595,43.58608026504517,114.10130920410155,0.0
254,2.157467848062516,-0.0097613592632114,46.72161178588867,41.81806983947754,114.08589324951174,0.0
255,2.1544923782348637,-0.0090529214357956,50.39194116592408,44.393772506713866,113.1918601989746,0.0
256,2.1526994109153748,-0.0073478114209137,51.68437070846558,47.24481048583984,108.99254989624023,0.0
257,2.154568672180176,-0.0026246116349283,50.42185621261597,49.85347938537598,101.0678783416748,0.0215530777350067
258,2.1573915481567383,0.00166219983912,46.23626394271851,50.20146656036377,92.60322952270508,0.0028737436980009
259,2.1526230812072757,-0.0022935549306566,49.55128231048584,45.34920616149903,85.81444969177247,0.0
260,2.145489352941513,-0.0080449095694347,45.63492078781128,43.63858413696289,83.1057243347168,0.0
261,2.138699024915695,-0.012543512857519,52.86630048751831,45.02564105987549,84.40222930908203,0.0
262,2.1356089115142822,-0.0123319149017333,49.32661771774292,44.00244226455688,87.06403751373291,0.0071843592450022
263,2.1329004764556885,-0.0106240204768254,50.13003664016723,40.22954788208008,90.74969863891602,0.0
264,2.127330845594406,-0.0111557077849283,50.03479843139648,37.14102630615234,94.81696891784668,0.0
265,2.1201208353042604,-0.0133194185327738,50.86141691207886,36.8638578414917,99.95365295410156,0.0
266,2.1164205074310303,-0.0122246719896792,48.58913297653199,36.5744815826416,103.38152503967284,0.0
267,2.113139796257019,-0.0111186628928407,49.69413938522339,36.985346508026126,106.25017681121824,0.0
268,2.108943462371826,-0.010633636638522,51.3840048789978,38.43223304748536,110.94281177520752,0.0
269,2.105929803848267,-0.0090198857709764,49.946275806427,39.95360336303711,113.55811004638672,0.0
270,2.10432745218277,-0.006864215643145,48.62087917327881,45.44261302947998,113.4545783996582,0.0057474873960018
271,2.1055100917816163,-0.0029782272438751,50.670940208435056,49.73015823364258,110.56287899017336,0.0143687184900045
272,2.1131397664546965,0.0057940400845836,47.55555543899536,51.7008544921875,103.14807510375977,0.0341257069259881
273,2.118747472763061,0.0103031135629862,45.431624031066896,53.16117248535157,95.63525466918944,0.1296776823699473
274,2.123706811666489,0.0124542903387918,53.03113598823548,53.01953659057617,89.19753284454346,0.2223559133708476
275,2.123592376708985,0.0085086277453228,46.64285707473755,55.882783603668216,87.79296188354492,0.0788483403623103
276,2.1211507499217985,0.00251043154567,47.26434679031372,49.317460250854495,91.1267074584961,0.0486740339547395
277,2.1197774410247803,-0.0011180900459293,52.76495695114136,37.37789869308472,98.00888729095458,0.0619650973007082
278,2.115009015798569,-0.0062160324683645,51.30830278396606,32.28327121734619,106.17112102508544,0.0276597833260893
279,2.1063493847846986,-0.0127305320464074,50.52014665603637,27.570818376541137,110.91649875640869,0.0057474873960018
280,2.1003220081329346,-0.0145386718912049,51.58791189193725,28.33150186538696,113.29980182647704,0.0057474873960018
281,2.0962019324302674,-0.013836970203556,50.55372400283814,30.65567779541016,113.03703365325929,0.0
282,2.0936079025268555,-0.0113349279155954,51.29731407165527,31.559828758239743,112.88805389404294,0.0071843594312667
283,2.0897549211978914,-0.0099061883520334,50.8601954460144,34.744811058044434,112.88805389404294,0.0132910646498203
284,2.089411562681198,-0.0059850786172318,46.10195388793945,41.33943939208984,112.88805389404294,0.0
285,2.08960235118866,-0.0031586976314428,47.49084215164184,44.96703433990479,111.30294742584226,0.0
286,2.0846049785614014,-0.0059945901099126,50.84737491607666,43.81257648468018,103.25999641418456,0.0
287,2.0799889624118806,-0.0080197002389467,53.81501808166504,39.35470027923584,98.73807106018069,0.0
288,2.076632022857666,-0.008732328005135,50.43528699874878,39.31623840332031,101.37306594848631,0.0
289,2.07319860458374,-0.0093047232367097,52.6697190284729,42.19902391433716,104.1623794555664,0.0
290,2.0709478855133057,-0.0079104082775301,47.45604391098023,43.272892475128174,104.6350082397461,0.0
291,2.070413827896118,-0.0051307655754498,46.01282043457032,42.33455410003662,103.14455108642578,0.0057474873960018
292,2.066789722442627,-0.0061283611226826,51.29975595474243,42.70818166732788,98.51966285705566,0.0
293,2.063966751098633,-0.0063141051097772,47.78327236175537,40.65018310546875,96.63713932037356,0.0172424621880054
294,2.062173843383789,-0.0057675134390592,46.403540992736815,40.34188022613526,96.6553373336792,0.0373586680740117
295,2.057519721984863,-0.0080603373469784,52.15323534011841,42.13369894027711,96.7644453048706,0.0
296,2.0524461269378667,-0.0099433921743183,50.96764316558838,41.64041471481323,98.47129001617432,0.0
297,2.0483260214328767,-0.0103850396350025,47.69902286529541,35.06715393066406,98.97058792114258,0.0
298,2.043939113616944,-0.0109496207674964,50.70696020126343,32.16788673400879,101.60139236450196,0.0
299,2.041726356744766,-0.0090346935670822,51.8693528175354,31.067155170440675,103.83570861816406,0.0
300,2.039819002151489,-0.0071674960199743,51.62087888717652,30.873015928268437,107.373978805542,0.0
