sec,SCL,SCR,TEMP,BVP,PVA,HR,MOTION
0,0.9705649048089982,0.0010000000474974,34.608499908447264,50.05433511734009,4.903540802001954,32.9762246131897,0.0
1,0.9700308263301849,0.03526603239879473,34.63025035858154,53.33760719299316,25.516482830047607,54.41567554473877,0.021553078107535824
2,0.9668645277619362,0.062076568789780094,34.645500564575194,47.59462718963623,25.85286912918091,80.0514289855957,0.0
3,0.9627445295453072,-0.00330546226177827,34.65600051879883,50.216727828979494,23.786324501037594,95.19032402038573,0.026222911477088905
4,0.9603030279278757,-0.0067211666959337375,34.669998264312746,49.34310169219971,24.819292259216308,101.6956310272217,0.0
5,0.9587008357048037,-0.0062352663138880845,34.68075017929077,49.993895053863525,24.470696449279785,103.44827270507812,0.0
6,0.9561067566275596,-0.006218639260623555,34.69149894714356,48.19963397979736,24.26495714187622,103.44827270507812,0.0
7,0.9548097088932991,-0.004885362379718523,34.705249881744386,49.654456329345706,25.36507911682129,103.21799411773682,0.06645532250404351
8,0.9530167579650879,-0.004512655170401508,34.72150049209595,49.589743518829344,31.048840284347534,102.92960529327392,0.17062852904200548
9,0.9522919654846191,-0.0034445399418472676,34.73325023651123,50.06166067123413,29.683761501312254,102.4263874053955,0.16631791479885577
10,0.9530549049377441,-0.0013014067004405174,34.74375104904175,51.575091648101804,26.227106475830077,102.46207675933837,0.10902265030890701
11,0.9548478573560715,0.0012134317829577026,34.7574987411499,49.039072036743164,27.542735528945922,102.84339332580566,0.24462742693722245
12,0.9595782324671747,0.005634998029563522,34.76974973678589,48.710622215270995,27.191086959838874,101.58808784484863,0.04741677008569239
13,0.9643467649817467,0.008663120341952827,34.78224925994873,48.0402928352356,25.747863721847533,101.77692604064941,0.0
14,0.961371184885502,0.0035736530466237426,34.795999908447264,49.88339462280273,24.973748111724852,100.06244049072265,0.031970398873090715
15,0.9602648794651033,0.0008468278840609558,34.806500625610354,50.33699598312378,23.054334592819213,96.51188583374024,0.0046698335558176
16,0.9591585993766787,-0.0014830617721599475,34.81725015640259,48.94505500793457,21.495725822448733,98.28804969787599,0.10596929565072055
17,0.9565263897180557,-0.004304371390026018,34.827751350402835,50.72283239364624,21.488400363922118,102.19082984924316,0.0
18,0.9543137788772583,-0.0050437825149856,34.83825044631958,49.86752119064331,21.955433130264282,104.77194499969482,0.0
19,0.9521012052893638,-0.005327935807872513,34.848998641967775,50.423076915740964,22.769231224060057,105.91384887695312,0.01724246218800543
20,0.9491637960076332,-0.00624500877456735,34.86274995803833,50.48229560852051,22.50488419532776,106.68492755889892,0.0
21,0.947408966720104,-0.005648349656257733,34.873999786376956,47.241758251190184,23.586690807342528,107.04086494445801,0.0
22,0.9456923007965086,-0.00509054773719976,34.88774976730347,51.02808294296265,24.392551994323732,105.72912788391113,0.0
23,0.9429456561803816,-0.00569078936241562,34.90025081634521,50.24664249420166,23.668498706817626,102.85080852508545,0.0
24,0.9400082245469094,-0.0062133360072038546,34.9157488822937,47.95787572860718,24.217338180541994,100.68103942871093,0.0
25,0.9399319276213646,-0.004118161904625552,34.92299880981445,49.80463972091675,25.870574235916138,99.90443077087403,0.0
26,0.9405423030257225,-0.001926685297803435,34.93000030517578,50.228938007354735,25.512821006774903,98.35638313293455,0.0
27,0.9396267399191857,-0.0015968405743478375,34.93724908828735,47.986569213867185,25.336996221542357,97.26862869262695,0.0
28,0.9371471345424652,-0.0028310381225309872,34.9477502822876,51.07264919281006,26.855311012268068,96.31486053466797,0.0
29,0.9353923201560974,-0.0035420786822214175,34.96024980545044,48.22344312667847,27.350427627563484,94.76342525482178,0.0
30,0.9353923201560974,-0.00267196439672256,34.970001220703125,51.39010972976685,28.409646368026735,93.63141059875488,0.0
31,0.9336756393313408,-0.0033125372690846625,34.979499626159665,46.73321142196655,28.909646129608156,92.63238868713378,0.0
32,0.9317300915718081,-0.0036976922128814727,34.990001583099364,51.34859571456909,27.96337022781372,91.66351547241212,0.0
33,0.9295556649565698,-0.004337883944390291,35.004249286651614,49.07326021194458,27.353479385375977,91.19418430328369,0.0
34,0.9274956479668619,-0.004875836696010027,35.01474933624267,49.96520128250122,27.594626665115356,92.27532711029053,0.0
35,0.9253593340516091,-0.005229052098002222,35.02849903106689,49.12942619323731,27.329669570922853,92.10059909820556,0.0
36,0.92429119348526,-0.00428375914343627,35.04225025177002,49.4835165977478,26.738705730438234,91.32083282470703,0.0
37,0.9231467828154564,-0.0036367153283207976,35.05349998474121,50.49755830764771,27.94688673019409,91.84881191253663,0.011674583703279482
38,0.922383813560009,-0.0028274843294638623,35.06725015640259,50.573870468139646,30.00488476753235,91.91368827819824,0.06879023760557174
39,0.921658992767334,-0.0022676604072330024,35.077751350402835,49.73687410354614,26.977411890029906,91.92893218994142,0.0669941503554582
40,0.9245582401752472,0.0014036090746344216,35.08525094985962,47.214896011352536,23.536020040512085,92.08089981079102,0.0
41,0.9362315684556961,0.012030620349105393,35.09224977493286,52.16666679382324,23.634920740127562,92.67546081542969,0.0
42,0.9432126954197881,0.015574705041944928,35.099998474121094,52.66666631698608,23.857753896713255,95.0378204345703,0.0
43,0.9423734292387961,0.010720197553746343,35.11000051498413,47.664835357666014,26.28510398864746,98.4370813369751,0.0
44,0.9416104599833487,0.005962150340201285,35.12099914550781,49.94200239181519,26.49572620391846,100.90208892822264,0.01149497479200362
45,0.9424497261643408,0.002997981722000925,35.130001068115234,46.60256385803223,25.802197265625,100.42518615722656,0.0
46,0.949125649034977,0.0065560253453440425,35.138499641418456,50.92063512802124,24.611720895767213,93.02547817230224,0.0
47,0.9540848925709724,0.009280764544382637,35.14900131225586,48.62637376785278,24.298534440994263,87.54880981445312,0.00574748739600181
48,0.9552293419837952,0.008040483226068259,35.15974988937378,51.97802200317383,27.12759428024292,86.67330322265624,0.00574748739600181
49,0.9532074987888336,0.0034787782380589676,35.17099838256836,48.40659370422363,27.697190761566162,89.04597320556641,0.00574748739600181
50,0.949964913725853,-0.0017401832817995125,35.18125009536743,50.17582426071167,29.299756240844726,91.76685314178467,0.0
51,0.9469130367040632,-0.005341740103904115,35.19199905395508,49.21489639282227,28.71794891357422,92.65739097595215,0.01149497479200362
52,0.9450438022613523,-0.005971016199327955,35.202500343322754,48.802808570861814,27.555555057525634,91.73525772094726,0.02083464208990334
53,0.942983804643154,-0.005904229264706325,35.2162504196167,49.18864450454712,25.88705759048462,90.67796058654784,0.1616480771452188
54,0.9389019191265107,-0.007246617134660435,35.220001220703125,49.549450397491455,25.814408111572266,90.68928680419921,0.12105645053088661
55,0.9391308099031448,-0.0044168295076814955,35.224500465393064,51.32966995239258,28.75580015182495,90.82653694152833,0.059989399462938256
56,0.946378979086876,0.004009899501397683,35.23500061035156,49.57875452041626,26.50549430847168,90.90908813476562,0.028737437352538087
57,0.9546189695596695,0.011172147188335604,35.24550075531006,51.9700852394104,26.424907779693605,91.60032329559326,0.010058102943003168
58,0.9522919446229935,0.006912887247744892,35.25624895095825,47.32600727081299,26.673993015289305,93.9760528564453,0.032868443429470026
59,0.9509949222207069,0.0035295887180836426,35.27000036239624,49.675214004516604,26.246641635894775,95.36843929290772,0.0
60,0.9506515860557556,0.0007459362353187907,35.28099899291992,47.24847383499146,25.434676456451417,92.95013751983643,0.0
61,0.9514908522367478,-0.0001236003063240775,35.291500663757326,52.38888874053955,25.33394441604614,89.46619548797608,0.0
62,0.951452699303627,-0.00029980894942127,35.29999923706055,47.84798555374145,25.617827129364013,88.32948226928711,0.0
63,0.9486678659915924,-0.0022937283560167426,35.30575046539307,49.513430786132815,25.831501770019532,88.41787071228028,0.0
64,0.9480193421244621,-0.0023569686833070074,35.310001373291016,49.1703296661377,24.785104179382323,88.97476119995117,0.0
65,0.9461882293224333,-0.003370283043477632,35.31999969482422,51.29670333862305,23.781440353393556,90.73848419189453,0.0
66,0.9530549123883247,0.003847170518338287,35.32750129699707,50.668498516082764,24.12942581176758,92.51090717315674,0.0
67,0.9577089920639994,0.00761188078904519,35.33825044631958,49.08241767883301,24.616605663299563,95.22926750183106,0.0
68,0.954199343919754,0.0028889772613183073,35.34599914550781,51.14835147857666,25.469474697113036,96.14087505340576,0.0
69,0.9572893440723419,0.004684341847314448,35.349998474121094,46.18498163223266,27.493894720077513,95.14090785980224,0.0
70,0.9725486040115356,0.016409557149745478,35.36000061035156,52.024419689178465,28.162393617630006,92.83789024353027,0.0
71,0.982772296667099,0.020636545540764904,35.36100044250488,47.585470008850095,28.0219783782959,89.42478561401366,0.0
72,0.9808267414569855,0.013584382506087383,35.369998931884766,52.69474954605103,27.802197551727296,88.21377792358399,0.0
73,0.9866633996367454,0.013992181490175387,35.375250053405765,47.50366315841675,27.68009743690491,89.50155239105224,0.0
74,0.9883037745952606,0.008876546035753514,35.39175014495849,50.735652923583984,26.81807146072388,91.36584949493408,0.0
75,0.9864726707339286,0.00259060228709127,35.400001525878906,49.60317449569702,25.600732851028443,92.8641284942627,0.0
76,0.997306740283966,0.01113476357422764,35.40999984741211,49.57203893661499,25.140415191650387,93.47337951660157,0.0
77,1.015274527668953,0.02401719605550164,35.41774854660034,49.75641021728516,25.973137378692627,93.60030956268311,0.0
78,1.012413415312767,0.014595894527155854,35.42774982452393,47.89743595123291,25.97680058479309,92.50928554534912,0.0
79,1.0038300722837448,0.002250533282494845,35.43000030517578,51.02686204910278,24.98901147842407,90.50383377075195,0.0
80,0.9997482135891914,-0.004786989171407127,35.439248752594,48.813187217712404,24.6104998588562,90.06384620666503,0.0
81,0.9991378530859947,-0.007058377878274717,35.44700002670288,49.70268611907959,25.054944610595705,91.23731365203858,0.06376118864864108
82,1.0047455996274948,-0.0003888738835023456,35.4609992980957,47.684982013702395,26.004884338378908,92.42745189666749,0.002873743698000905
83,1.0131763637065887,0.009618631837656676,35.470001220703125,51.41025638580322,25.638583612442016,90.9105068206787,0.03646062314510341
84,1.0480819135904311,0.04039904032833867,35.47525033950806,48.22100143432617,23.943834209442137,88.03842086791992,0.11153717469424003
85,1.0900830060243607,0.06834533456712959,35.48275012969971,52.57936534881592,24.84737491607666,86.96340560913086,0.051008950918912846
86,1.1038544923067093,0.06200882559642192,35.49025163650513,49.18009767532349,26.36141586303711,87.98717880249023,0.0
87,1.1077456027269363,0.04535651952028271,35.5,49.251526069641116,26.89865670204162,91.60905456542969,0.0
88,1.127735224366188,0.043442875798791615,35.50449924468994,46.72771692276001,24.30769271850586,93.38656768798828,0.0
89,1.1355174422264098,0.03019575788639482,35.5119987487793,50.82295484542847,22.49816837310791,93.41254673004151,0.0
90,1.1364330053329468,0.018235627911053563,35.52250003814697,51.793651008605956,21.597070121765135,93.4372133255005,0.0
91,1.1259041130542755,0.0010693439748138225,35.529998779296875,49.40415143966675,23.156287956237797,96.14278869628906,0.0
92,1.1128193140029907,-0.014701910340227123,35.537000274658205,49.836385822296144,24.58119640350342,99.39114379882812,0.0
93,1.1045411407947539,-0.021174641931429476,35.544000244140626,50.133699893951416,25.568986654281616,100.9342725753784,0.0
94,1.0992004334926604,-0.020108655700460054,35.55149955749512,47.72893762588501,25.495116281509397,98.43601417541504,0.04472263678908344
95,1.094775229692459,-0.01672989719081667,35.560001373291016,51.091575145721436,24.57509160041809,92.91803150177002,0.00574748739600181
96,1.099276718497276,-0.00512071923003528,35.5689998626709,49.87973136901856,24.66422462463379,89.2319149017334,0.0
97,1.09149449467659,-0.008518765919143285,35.57024974822998,51.23687429428101,25.435897207260133,90.17376956939697,0.0
98,1.080813017487526,-0.014622788014821664,35.58000183105469,49.715506649017335,25.795481777191164,93.84159450531004,0.0
99,1.079058188199997,-0.011928590410388967,35.58000183105469,48.21672792434693,27.63919405937195,97.78999938964844,0.0
100,1.0903881996870042,0.0020991386203604674,35.58800048828125,48.6074481010437,26.38156304359436,99.70495376586913,0.0
101,1.1215552300214768,0.03149324306286868,35.59224977493286,50.72771692276001,23.736264467239376,99.96713829040526,0.0
102,1.1343348681926726,0.037470004241913525,35.60599975585937,49.72161159515381,24.479853630065914,99.84690895080566,0.0
103,1.126361882686615,0.02032230871263888,35.610500526428225,51.21062335968018,25.60866861343384,101.90271759033202,0.0
104,1.1161381870508194,0.0019427902603638212,35.619998931884766,49.39010992050171,26.44017062187195,102.89222049713135,0.0
105,1.1146122753620147,-0.005963293474633195,35.619998931884766,46.283882808685306,25.604394912719727,101.40736389160156,0.0
106,1.1152226746082305,-0.007246800512075377,35.62850074768066,49.93101377487183,24.50183148384094,97.22713127136231,0.040232412330806225
107,1.1111789286136626,-0.007859680452383992,35.630001068115234,47.899877834320066,23.5463972568512,93.93246231079101,0.012931846641004075
108,1.1017944782972333,-0.012327712611295238,35.639499473571775,52.064102268218996,28.304640007019042,93.11169261932373,0.027300565689802152
109,1.0962629824876786,-0.01343524951953437,35.646750831604,50.51282052993774,26.85103793144226,93.19699974060059,0.0
110,1.100230413675308,-0.00600153001578288,35.65425081253052,48.890109634399415,25.597679901123048,94.59338321685792,0.0
111,1.109424102306366,0.00516799006727519,35.65999984741211,51.53724060058594,25.066544198989867,96.94131202697756,0.0
112,1.1082796663045884,0.004788673366692767,35.66224946975708,48.849816989898684,25.76556749343872,101.52134838104249,0.0
113,1.0957289397716523,-0.006974408999667466,35.66999816894531,49.465201663970944,25.72161192893982,104.79714965820312,0.0
114,1.0779137581586837,-0.022357266908511485,35.67649955749512,49.314407634735105,24.862026500701905,104.15584259033203,0.0
115,1.0712378203868866,-0.024273370672017312,35.68000030517578,49.99023199081421,27.59279580116272,103.72105598449707,0.0
116,1.0729545086622239,-0.0157538057537749,35.68125009536743,49.82783851623535,27.81868076324463,102.20731563568116,0.0
117,1.0848948895931245,0.0023789187047441175,35.689998626708984,48.274114322662356,26.25152587890625,100.19265594482421,0.0
118,1.0866878390312196,0.0072497839224524175,35.689998626708984,51.87606859207153,26.438338851928712,99.82990875244141,0.0
119,1.0812708109617233,0.002366086834808755,35.69925060272217,51.48656892776489,26.993284273147584,100.42142639160156,0.0
120,1.076731139421463,-0.003253688984841523,35.700500679016116,46.141635990142824,28.168498039245605,101.48036956787108,0.01149497479200362
121,1.0734504461288452,-0.007268075679894489,35.709999084472656,50.6080584526062,27.492674398422242,100.43137302398682,0.0
122,1.0704367250204085,-0.00894592616241421,35.709999084472656,50.954212474822995,26.16178250312805,99.21636428833008,0.0
123,1.062654483318329,-0.012619738862849731,35.709999084472656,48.1770453453064,25.9780216217041,96.65490112304687,0.0
124,1.0549485772848128,-0.015327301551587836,35.71274967193604,51.20879106521606,27.728328037261964,95.18455047607421,0.0
125,1.0489211559295655,-0.015843757032416715,35.720001220703125,45.67094030380249,27.718559312820435,94.63355140686033,0.0
126,1.044343400001526,-0.014770129718817724,35.72075109481811,52.033577632904056,24.286934852600098,94.47705001831055,0.0
127,1.042855629324913,-0.010435764130670534,35.72999954223633,51.483516693115234,24.183150005340575,95.24224910736083,0.0
128,1.044572302699089,-0.0042072121577802525,35.73925151824951,48.762515258789065,25.699023246765137,97.28089141845705,0.0
129,1.038964495062828,-0.006520029634702905,35.7400016784668,48.837606811523436,25.805860471725463,100.63562774658203,0.0
130,1.0333567172288896,-0.008982862089760553,35.74625062942505,50.241758060455325,24.60256447792053,102.42939548492431,0.0
131,1.029427483677864,-0.009864879073575092,35.75,50.2081805229187,24.151404190063477,102.2844223022461,0.0
132,1.0236289620399475,-0.012391480314545286,35.75,50.20695948600769,24.36141629219055,102.12983741760254,0.0
133,1.0176015675067902,-0.013678841036744363,35.75174970626831,48.91208782196045,31.66666784286499,101.97226963043212,0.030892745032906503
134,1.0121082067489624,-0.013688483717851275,35.7599983215332,49.33943853378296,26.750915718078613,100.40462741851806,0.011854192800819863
135,1.008789312839508,-0.011869888636283523,35.762748908996585,48.067765426635745,25.82478666305542,98.75568141937255,0.0
136,1.0131382286548614,-0.0032410641506430424,35.77000045776367,52.63247852325439,25.684981918334962,98.3124267578125,0.0
137,1.0262230366468432,0.01117452826583753,35.77000045776367,49.50183153152466,29.03907151222229,98.18200340270997,0.0
138,1.031907081604004,0.014930516248568833,35.777749156951906,46.68742370605469,26.874237155914308,99.71856040954592,0.00574748739600181
139,1.0298852622509003,0.009637321438640305,35.779998779296875,51.37301607131958,26.930402755737305,99.06351318359376,0.0
140,1.0259941637516024,0.0022018242423655103,35.779998779296875,48.282662105560306,26.69597053527832,97.62523040771484,0.0
141,1.0214926481246949,-0.005043730279430695,35.78950080871582,50.614163875579834,27.710012769699098,97.04036407470703,0.0
142,1.018898606300354,-0.007677372265607064,35.790000915527344,49.87362642288208,29.28082981109619,96.96431732177733,0.0
143,1.0155797004699707,-0.0084149995935149,35.790000915527344,46.03724069595337,28.067154216766358,97.6565071105957,0.0
144,1.0132907688617707,-0.007351357268635129,35.79799957275391,51.575091457366945,26.700854110717774,96.61625061035156,0.0
145,1.0122989416122437,-0.005338111391756632,35.79999923706055,50.685592365264895,27.33516435623169,95.93502311706543,0.0
146,1.0118411779403687,-0.0034229517274070196,35.80900115966797,48.97191686630249,28.77533621788025,96.2440776824951,0.0
147,1.013634118437767,-0.0001738867635139975,35.810001373291016,50.145909786224365,28.02197856903076,98.10698165893555,0.0
148,1.0122989416122437,-0.000691991761243534,35.811001205444335,49.07264957427979,26.813186645507805,98.97748069763183,0.0
149,1.0099337965250015,-0.0024315265094628025,35.81999969482422,48.03357772827148,24.203907108306886,96.38336830139158,0.0
150,1.007644885778427,-0.003885926789371235,35.81999969482422,51.88034200668335,23.499389362335204,93.66962032318115,0.0
151,1.005050778388977,-0.005367959116119845,35.82575092315674,48.420635032653806,24.407814979553226,93.82697296142578,0.0
152,1.0060807913541794,-0.0028186067414935198,35.83000183105469,51.41025638580322,26.493284463882446,97.77486000061035,0.0
153,1.0071871161460877,-0.00046996218734417255,35.83000183105469,49.78327226638794,27.413919687271118,99.7522361755371,0.0
154,1.0036011606454849,-0.0029770849505438802,35.83000183105469,46.50976819992066,25.9352876663208,98.94407844543457,0.0
155,0.9968489572405815,-0.008032474655192292,35.831751537323,52.213064956665036,24.576922988891603,93.79026527404785,0.0
156,0.9916608259081843,-0.010767574049532358,35.84000015258789,48.587911987304686,25.299144744873047,91.11968536376952,0.0
157,0.9871593251824379,-0.012083984282799009,35.84000015258789,50.248473739624025,27.492063331604005,91.65051364898682,0.0
158,0.9843745291233063,-0.01058850833214813,35.84974851608276,49.65934028625488,28.394383430480957,93.3734359741211,0.0
159,0.9825434029102326,-0.007978055323474047,35.849998474121094,49.39010992050171,29.39255118370056,94.92766761779785,0.0
160,0.9794534191489219,-0.0072213710169307275,35.857500076293945,49.461538314819336,28.193528413772583,95.15503978729248,0.0
161,0.974990066885948,-0.008314892346970698,35.86000061035156,48.3925518989563,27.006105136871337,92.61352272033692,0.0
162,0.9720526844263075,-0.008081534691154916,35.86000061035156,51.764957427978516,27.736264038085938,92.76923828125,0.0
163,0.9696874901652336,-0.0075277590658515275,35.866249561309814,50.01404180526733,29.476191139221193,94.47101936340333,0.018679334037005883
164,0.9710608348250389,-0.0034312654752283824,35.869998931884766,49.403541278839114,30.094017028808594,96.64629058837892,0.0071843594312667805
165,0.9725104570388792,-0.0001930952063957905,35.869998931884766,48.61294260025024,29.972527837753297,97.36752605438232,0.0
166,0.9705267563462258,-0.0011043210179763805,35.87149925231934,47.55372428894043,25.799146032333375,95.60221939086914,0.007184359245002263
167,0.9672841593623162,-0.0034299374499823323,35.880001068115234,51.64957284927368,24.184371662139892,95.2428077697754,0.0
168,0.9646519526839257,-0.005026544636348217,35.880001068115234,50.87851037979126,27.27655735015869,97.59756107330324,0.0
169,0.9628971233963967,-0.005600634287111413,35.88649997711182,47.93223476409912,27.52930417060852,100.49075126647949,0.0
170,0.9586626797914507,-0.0075764138367957895,35.88999938964844,49.31074466705322,24.83211169242859,101.35822143554688,0.0
171,0.9556108266115189,-0.007630823145154821,35.88999938964844,51.17216148376465,23.274725437164307,99.83901252746583,0.0
172,0.9531312003731728,-0.0072238134918733935,35.89500045776367,48.240537357330325,24.126983642578125,96.33968276977538,0.0
173,0.955305640399456,-0.002617776457918785,35.900001525878906,51.39499359130859,25.733211469650268,96.57029647827149,0.0
174,0.9642704635858536,0.007220794039312695,35.900001525878906,50.361416244506835,28.307692050933838,98.34219665527344,0.0
175,0.9682378485798836,0.009944406105205358,35.900001525878906,46.40659313201904,27.01343126296997,99.08354568481445,0.004310615547001358
176,0.9653767570853233,0.005038091904134433,35.900001525878906,51.384004783630374,24.402930355072023,97.54298973083495,0.01724246218800543
177,0.9616382241249086,-0.00045374858673309995,35.900001525878906,49.39804620742798,25.090354776382448,96.1967836380005,0.0
178,0.9600741371512415,-0.0034817710460628877,35.900001525878906,50.13736238479614,25.746031665802,96.44775047302247,0.0
179,0.956946022808552,-0.006415335822384754,35.90900001525879,50.530524826049806,27.23626313209534,97.8987449645996,0.0
180,0.9527115881443023,-0.008184204460121646,35.91024980545044,47.35164861679077,27.311966466903687,99.3377456665039,0.01149497479200362
181,0.9513382583856582,-0.006541016988921858,35.918998336791994,48.6611722946167,26.684982299804688,97.75626049041747,0.0
182,0.9478667482733727,-0.007308815012220247,35.90999984741211,52.25702037811279,24.28266124725342,95.91182594299316,0.0
183,0.9456923007965086,-0.006639314838685045,35.91199951171875,48.80891342163086,24.666666412353514,95.623547744751,0.0
184,0.9435941800475118,-0.00593908268492664,35.91999816894531,51.69413919448853,26.731989526748656,97.84911861419678,0.0
185,0.9409237876534462,-0.006103763915598343,35.91999816894531,49.45421237945557,27.610499954223634,101.02224369049073,0.0
186,0.9375286027789116,-0.007012492825742759,35.91999816894531,46.437118434906004,27.405372142791748,101.49773101806639,0.0
187,0.9339808270335197,-0.0076914345030672324,35.91999816894531,51.5384617805481,25.929182147979738,100.01578178405762,0.0
188,0.9311960220336916,-0.007707677618600378,35.91999816894531,49.28998804092407,25.964591026306152,95.73137474060059,0.0
189,0.9266945302486421,-0.009030073368921825,35.922748756408694,49.2228328704834,26.96886420249939,94.89217987060546,0.0
190,0.9236426949501038,-0.00864922602195288,35.93000030517578,51.28571424484253,28.915140008926393,95.56711692810059,0.0
191,0.9231849312782288,-0.005864678672514802,35.93000030517578,47.00305280685425,28.57631278038025,97.10238285064696,0.0
192,0.9210867658257484,-0.0054035456152632345,35.93000030517578,50.42368717193604,26.104395627975464,96.07250804901125,0.0
193,0.9177297353744507,-0.00603470235364506,35.93150005340576,50.102564334869385,25.11294198036194,94.27642631530762,0.0
194,0.9144871413707731,-0.0067699503153562015,35.939998626708984,49.02747240066528,25.931013822555542,93.74118232727051,0.0
195,0.9105960130691526,-0.008101053431164424,35.939998626708984,51.99267406463623,29.05067162513733,95.19045753479004,0.0
196,0.9098712205886839,-0.0062087819795123775,35.939998626708984,46.907204246521,30.18253993988037,96.2795934677124,0.012931846641004075
197,0.9078875169157982,-0.00553291504038493,35.939998626708984,50.8528697013855,26.85592246055603,94.79214382171631,0.0
198,0.9039201095700264,-0.006800788268446875,35.9477502822876,50.15934104919434,26.27289390563965,94.10854244232176,0.0
199,0.9002197355031967,-0.0076197943650185476,35.95000076293945,50.174603366851805,28.247252559661867,94.80776996612549,0.0
200,0.8973967492580414,-0.007753782300278493,35.95000076293945,51.41758270263672,29.72344298362732,96.69984550476075,0.0
201,0.8953749388456345,-0.007022652903106022,35.95000076293945,45.92490844726562,29.74175820350647,97.58502922058105,0.0
202,0.8925519540905953,-0.006793153239414045,35.95000076293945,51.53540878295898,26.041513919830322,95.07784881591797,0.0
203,0.8894237965345383,-0.007001795805990642,35.951500511169435,48.99877872467041,24.854701232910156,93.19827880859376,0.0
204,0.8876308619976043,-0.0060868402360937995,35.959999084472656,50.373626136779784,26.405372428894044,92.5965145111084,0.02873743698000905
205,0.8877071589231491,-0.003755148971686075,35.954000091552736,52.17765579223633,29.561660528182983,94.48889827728271,0.002873743698000905
206,0.8884701132774353,-0.0013476967775204246,35.95325021743774,45.62942600250244,29.515873003005982,96.05262031555176,0.008621231094002715
207,0.8854563996195793,-0.002989391001756255,35.959999084472656,51.12393159866333,24.64957203865051,95.66524009704588,0.0
208,0.8825190022587777,-0.004510990681592327,35.964249992370604,50.26678867340088,23.951160430908203,94.1464376449585,0.0
209,0.879352705180645,-0.006156858417671119,35.970001220703125,49.1630036354065,25.826618194580078,95.13521270751953,0.00574748739600181
210,0.8798867836594582,-0.00400298687454774,35.970001220703125,51.38156251907348,28.22954902648926,96.49884643554688,0.0
211,0.879047517478466,-0.0032110158179420546,35.970001220703125,46.45238084793091,28.57570285797119,98.26158714294432,0.00574748739600181
212,0.8743934512138367,-0.005695790890604202,35.970001220703125,50.88400459289551,24.36568922996521,96.42130298614502,0.0
213,0.8740882769227027,-0.00400932993507008,35.970001220703125,49.40659313201904,24.514652490615845,93.70813179016113,0.0
214,0.8743553161621094,-0.0024472917895763725,35.970001220703125,51.23321123123169,27.59462776184082,93.47337951660157,0.0
215,0.8752326965332031,-0.0006865365187422668,35.972250843048094,50.95848617553711,29.582416915893553,95.72039794921874,0.0
216,0.8724478930234909,-0.0023116720680263275,35.97999954223633,46.54517726898193,28.22954750061035,96.96383800506591,0.00574748739600181
217,0.8675267934799195,-0.0058869100874289326,35.97400054931641,51.05006103515625,26.24786319732666,95.12164764404297,0.0
218,0.8648945569992066,-0.006909525953233188,35.97999954223633,48.945054626464845,25.128204345703125,92.55313568115234,0.0
219,0.8649327054619789,-0.004960214183665768,35.97999954223633,50.67826690673828,26.49267339706421,92.97487907409668,0.0
220,0.8669545739889145,-0.001152704018750205,35.97999954223633,51.69169673919678,29.188034057617188,94.47434997558594,0.0
221,0.86825160831213,0.0013973675168017078,35.97999954223633,46.578143978118895,28.65689849853515,95.65565490722656,0.0
222,0.8644367754459381,-0.0017700567172141476,35.97999954223633,51.057387065887454,27.246642112731934,94.416672706604,0.0
223,0.8600879073143005,-0.005338546779239488,35.97999954223633,48.954212284088136,25.264957427978512,93.64779205322266,0.0
224,0.8599734649062156,-0.004434464994119423,35.987751197814944,50.79426107406616,27.550671768188476,94.77245330810547,0.0
225,0.8641315892338752,0.0004905951129444287,35.9900016784668,51.00732583999634,27.633699798583983,97.02501907348633,0.0
226,0.8635975167155265,0.0006280909714405275,35.992251300811766,48.2307689666748,26.148962783813477,98.23184051513672,0.0
227,0.8580660417675972,-0.003707385552115688,36.0,47.672771549224855,24.38095207214355,98.37779998779298,0.0
228,0.8558152914047241,-0.004902373044751536,35.99025163650513,51.94993877410889,24.525641012191773,99.69071712493897,0.0
229,0.8545182913541793,-0.0052858439157716375,35.9900016784668,51.817460441589354,27.407815074920656,100.84223747253418,0.0
230,0.8521530896425247,-0.005972760485019483,35.99775037765503,46.8601954460144,28.134920835494995,100.32051715850831,0.0
231,0.8486052885651588,-0.006651364278513895,36.0,49.71733798980713,26.804639434814455,96.9238380432129,0.0
232,0.8468886613845825,-0.005740754934959065,36.0,47.81501865386963,27.17338228225708,91.2717725753784,0.0
233,0.8458968013525009,-0.004705012525664592,36.0,53.52442035675049,28.283271980285644,90.53979034423828,0.00574748739600181
234,0.8447523474693298,-0.00390669563203114,36.0,45.72832717895508,29.855921030044556,91.75765838623046,0.06896984856575726
235,0.8434934481978417,-0.00323681131121697,36.00474920272827,50.87973136901856,28.560439014434813,93.29166393280028,0.012931846641004075
236,0.8435315966606141,-0.00185806921799662,36.0099983215332,49.954212284088136,27.471917057037352,95.86374568939209,0.01724246218800543
237,0.8423108458518982,-0.002142221032408925,36.015749549865724,50.51587324142456,27.103174495697022,99.92695922851563,0.0
238,0.8424634397029876,-0.0011760067352951944,36.02000045776367,48.78998804092407,27.381562376022337,104.23891487121583,0.0
239,0.8389538213610649,-0.0038532944381585825,36.02000045776367,48.40598278045654,24.338827753067015,105.75590095520019,0.0
