sec,SCL,SCR,TEMP,BVP,PVA,HR,MOTION
0,5.749992382526398,0.0010000000474974,34.389250087738034,48.7148962020874,0.0,30.0,0.0
1,5.731070995330811,0.0010000000474974,34.40550060272217,50.978632640838626,15.213674926757813,54.60337839126587,0.0
2,5.7270272970199585,0.4980040735506918,34.4157488822937,48.43162393569946,19.014652442932128,84.40587005615234,0.0
3,5.73397022485733,0.0324627579160733,34.41999816894531,51.21062269210815,18.06043963432312,100.98531246185304,0.0
4,5.760330486297607,0.0193486195756122,34.42699966430664,51.29670333862305,19.448717927932737,106.66375255584717,0.0
5,5.780472791194915,0.03749370910227295,34.437749004364015,47.19963359832764,17.067765593528748,109.91171302795411,0.0
6,5.833078992366791,0.0780002859421074,34.44524974822998,48.957265090942386,20.266788840293884,110.78301124572754,0.0
7,5.982619714736939,0.19267701543867585,34.45000076293945,54.79731397628784,19.369963264465333,111.37085494995117,0.007184359245002263
8,6.137195956707001,0.27951603382825846,34.45000076293945,43.70695977210998,18.510377883911133,111.94029998779294,0.02586369328200815
9,6.248969995975495,0.30138636305928224,34.45674962997437,43.49572651199996,18.510377883911133,111.94029998779294,0.05262543205171819
10,6.389202558994294,0.3307325348258018,34.46750068664551,58.58791178222746,18.510377883911133,111.94029998779294,0.024786039628088452
11,6.447264063358307,0.2625903412699699,34.47799987792969,43.42368720797822,18.510377883911133,108.57602462768554,0.07148437481373542
12,6.476638066768646,0.1815629214048385,34.48575077056885,60.31990244486369,18.510377883911133,100.78894729614258,0.07777068894356483
13,6.625301349163055,0.23538839593529698,34.495750713348386,41.25457861423492,18.510377883911133,74.90636444091797,0.028737437725067122
14,6.82111576795578,0.32408145144581796,34.50649890899658,48.633089161803944,18.510377883911133,74.90636444091797,0.002873743698000905
15,6.915570592880249,0.30549608692526814,34.51699981689453,48.11904764175415,18.63675150871277,74.59539194107056,0.0014368718490004526
16,6.8810846447944645,0.17756188511848447,34.52449970245361,46.835775470733644,21.941391801834104,60.199264430999754,0.0
17,6.844119155406952,0.05928735090419644,34.53499984741211,48.769841003417966,18.973749113082885,56.96038999557495,0.021553078107535824
18,6.8676946520805355,0.02316992704290892,34.54525003433228,51.53113527297974,18.147130346298216,74.78702449798584,0.0
19,6.951277232170105,0.06973435059189792,34.55274982452393,49.921245384216306,16.698412132263183,94.86286544799805,0.0
20,6.931669056415558,0.03678916521312196,34.56675024032593,46.800366497039796,15.652625465393067,104.23290309906005,0.0
21,6.866130518913269,-0.027042640675790562,34.57400054931641,49.892551803588866,17.54761953353882,107.42924709320069,0.0
22,6.83694726228714,-0.05384798273444171,34.58000183105469,49.91636142730713,17.58241844177246,105.75555686950683,0.0
23,6.8097094893455505,-0.0763912649825215,34.58525094985962,48.70268611907959,15.560439586639404,105.18256320953367,0.0
24,6.772820222377777,-0.08869385626167055,34.59574918746948,48.97252779006958,15.800366020202636,105.00756263732907,0.00574748739600181
25,6.745048344135284,-0.07776255700737233,34.6064998626709,50.24786348342896,16.080586099624632,104.98687744140622,0.0
26,6.815889477729797,0.0178287103455659,34.6169994354248,50.55921878814697,15.36019515991211,104.98687744140622,0.0
27,6.906910932064056,0.10433488544076677,34.62449989318848,47.99755830764771,11.675213956832886,105.31987648010254,0.0
28,6.88230539560318,0.0645932986401021,34.630001068115234,50.04883975982666,11.208791208267213,107.79400062561035,0.0
29,6.849116539955139,0.01681849379820046,34.6355001449585,51.285714340209964,11.125763416290283,106.82595844268799,0.0
30,6.815202784538269,-0.0323876346694305,34.63999938964844,49.86813163757324,10.722832870483398,106.04495315551758,0.0
31,6.779839491844177,-0.07297938773408527,34.64975147247314,48.36874275207519,10.004883861541746,105.3881404876709,0.0
32,6.766296863555908,-0.06668800236657256,34.65125131607056,49.349816703796385,11.647130298614503,105.04436035156247,0.0
33,6.7509232521057125,-0.05385933229699726,34.65999984741211,51.04700860977173,12.757020473480225,104.78620624542236,0.01149497479200362
34,6.741958320140839,-0.038852735562249975,34.65999984741211,46.555555725097655,13.040292739868164,104.25716400146484,0.02442682161927221
35,6.743141043186188,-0.019673244329169347,34.65999984741211,52.22039098739624,12.663003659248352,104.0631649017334,0.0
36,6.727996158599853,-0.022835692344233344,34.65999984741211,49.74297933578491,13.452380967140197,104.56850910186768,0.0
37,6.721549034118652,-0.019872576463967503,34.6607497215271,49.48290615081787,14.34676423072815,104.83556289672852,0.0
38,6.716017723083496,-0.01727660596370692,34.66999816894531,49.33150157928467,15.231379342079162,104.89510345458984,0.0
39,6.698278760910034,-0.02803487558849152,34.66999816894531,50.946886253356936,16.19291753768921,104.43963890075683,0.0
40,6.6607028365135195,-0.052810725010931446,34.67574939727783,48.06776571273804,16.722222089767456,104.24429035186768,0.0
41,6.629726600646973,-0.06526084430515762,34.68000030517578,50.1214898109436,16.59340658187866,102.11337471008301,0.0
42,6.609889483451843,-0.0640905608423054,34.68000030517578,50.045177173614505,16.139804816246034,101.91894912719725,0.0
43,6.615916919708252,-0.03607704070454925,34.68000030517578,49.870573902130126,15.605006384849549,103.00545349121094,0.0
44,6.686452841758728,0.04652769676176827,34.68000030517578,48.01831502914429,17.655677795410156,103.85132217407227,0.0
45,6.72330379486084,0.07689912915229793,34.68499946594238,51.546398067474364,17.413918685913085,102.86417846679687,0.0
46,6.704763948917389,0.04416935048066076,34.689998626708984,50.80158758163452,15.418192744255066,102.33457851409912,0.0
47,6.688703608512879,0.012554984911184845,34.689998626708984,49.98656911849976,14.346764469146729,102.16463356018066,0.00574748739600181
48,6.691450226306915,-6.215218963915746e-05,34.69074878692627,47.71855926513672,12.452991652488707,102.76210250854493,0.0
49,6.762291312217712,0.055638480000197846,34.70000076293945,50.57020769119263,13.699023342132568,105.10094184875489,0.0
50,6.81825464963913,0.09478587619960305,34.70000076293945,48.24297904968262,13.842490673065186,105.26501426696777,0.0
51,6.816270971298218,0.07176032764837141,34.70000076293945,49.28937702178955,13.713064885139465,103.76680355072021,0.0
52,6.798493909835815,0.03198616711888457,34.70000076293945,51.302808570861814,10.973748683929445,102.09948539733888,0.0
53,6.770989096164703,-0.015717359713016757,34.70000076293945,49.70268650054932,9.281441092491148,100.42950096130372,0.0
54,6.741843891143799,-0.051027275621890966,34.70000076293945,51.60439577102661,8.157509112358094,99.98352108001708,0.0
55,6.724829876422882,-0.05555211631581182,34.69800033569336,48.534187984466556,11.550671577453612,102.32728385925293,0.0
56,6.69255656003952,-0.06561982585117218,34.69549980163574,49.510378074646,12.247252655029298,102.36745338439941,0.0
57,6.665967226028442,-0.06626914590597147,34.70000076293945,49.63186817169189,11.74481089115143,102.90348320007324,0.0
58,6.652577304840088,-0.054100435413420155,34.70649967193604,49.50854682922363,12.565323901176452,104.19900245666504,0.0
59,6.6370891571044925,-0.04760681511834257,34.709999084472656,48.62759447097778,13.789987897872924,103.86480369567872,0.0
60,6.630260491371155,-0.034449417144060086,34.709999084472656,50.554944896698,14.326007556915282,102.32383842468263,0.0
61,6.620189511775971,-0.027800208004191466,34.709999084472656,49.38034172058106,14.791818976402283,98.7768045425415,0.0
62,6.626941752433777,-0.009674414859909986,34.709999084472656,49.64407806396484,14.588522338867188,97.15283508300783,0.0
63,6.632053637504578,0.000796691126743085,34.709999084472656,49.999999809265134,13.75335783958435,96.37379093170165,0.0
64,6.617557263374328,-0.00978718419792126,34.709999084472656,50.41025676727295,13.154456400871277,99.25052070617674,0.0
65,6.600924718379974,-0.021713468176312697,34.709999084472656,48.39377288818359,15.071428489685058,102.23827362060545,0.0
66,6.584177696704865,-0.03184314533136781,34.709999084472656,49.71489591598511,16.059218549728392,102.87467288970947,0.0
67,6.556711065769195,-0.049313264060765465,34.71575031280518,49.55250263214111,15.167277479171753,101.55746631622314,0.0
68,6.531762087345124,-0.056483311951160374,34.720001220703125,49.20207576751709,14.195360040664672,100.06296882629394,0.0
69,6.512611746788025,-0.05491194101050493,34.720001220703125,49.20512809753418,13.84615421295166,101.65701026916504,0.0
70,6.502884030342102,-0.0437197119928896,34.720001220703125,51.63369951248169,14.076312589645386,102.90347137451172,0.0
71,6.549424719810486,0.01673564159718805,34.720001220703125,48.04395589828491,12.814407658576965,104.06759490966797,0.0
72,6.577845096588135,0.04557377491146321,34.720001220703125,50.07631254196167,13.015872716903687,105.80549697875976,0.0
73,6.58898434638977,0.04944280767813321,34.72300071716309,50.43162384033203,13.586080503463744,106.9226713180542,0.0
74,6.676190996170044,0.1152408968657255,34.72999954223633,48.47069597244263,11.385836696624756,104.67341003417968,0.0
75,6.754165756702423,0.15041662678122517,34.72999954223633,49.79426145553589,10.485348272323607,104.03631248474122,0.0
76,6.861133146286011,0.20127048976719375,34.72999954223633,50.26678876876831,11.131868457794189,103.98209381103516,0.0
77,6.989348995685577,0.25772893391549584,34.73199996948242,50.46825361251831,12.382173800468445,103.70555839538574,0.004310615547001358
78,7.092120110988617,0.2672279991209507,34.7400016784668,43.38461532592773,11.652014923095702,104.448046875,0.0
79,7.275345575809479,0.34378810115158553,34.7400016784668,38.69780220459215,12.185592651367188,104.6207504272461,0.0
80,7.495994424819946,0.42384675741195676,34.74050159454346,70.01098918914795,12.185592651367188,104.6207504272461,0.0
81,7.337107408046722,0.13887787712737915,34.75,36.07264971733093,12.185592651367188,104.6207504272461,0.0
82,7.274658906459808,0.003764290999970405,34.75,49.62942619323731,14.578755187988282,104.63902435302734,0.0
83,7.269470858573913,-0.04674824615940446,34.744500923156735,49.20818071365356,36.117218017578125,104.8034896850586,0.0
84,7.270348262786865,-0.06596406521275636,34.7400016784668,54.05189251480624,16.021978330612182,100.7154987335205,0.0
85,7.282441079616547,-0.02560376087203616,34.7400016784668,46.741758251190184,15.506715774536133,88.75739288330078,0.0
86,7.217818248271942,-0.05480308108963068,34.74400100708008,49.13431005477905,15.652014827728271,87.6876594543457,0.0
87,7.178640067577362,-0.07453136239200826,34.74850025177002,50.76556806564331,16.3736261844635,89.10563716888427,0.0
88,7.175664615631104,-0.05746717066504057,34.7400016784668,49.0152624130249,15.93406629562378,99.65526580810545,0.01149497479200362
89,7.252761936187744,0.030740219527797274,34.7400016784668,46.07997570037842,11.975580024719239,104.10916500091552,0.0
90,7.29178751707077,0.06956868609413501,34.7400016784668,50.71001224517822,15.99084267616272,108.48620643615723,0.0
91,7.271950387954712,0.04416384259238833,34.7400016784668,50.39865684509277,16.53540954589844,109.70582332611085,0.0
92,7.251274192333222,0.009843978703429433,34.738501358032224,50.40659351348877,15.652015018463135,107.53636856079102,0.0
93,7.205839741230011,-0.04694388383068139,34.72999954223633,49.05921831130981,13.247252559661865,107.61869525909424,0.0
94,7.1760459542274475,-0.07261026911437507,34.72999954223633,50.20573892593384,14.811965656280517,108.29858264923095,0.0
95,7.170285701751709,-0.05658347066491838,34.73950033187866,48.92551898956299,15.692307734489441,107.19880104064941,0.0
96,7.158307230472564,-0.04525008732452985,34.74375104904175,50.36752147674561,15.036629843711854,106.66436080932617,0.0
97,7.12893306016922,-0.05104549014940853,34.75,49.746642398834226,14.025641298294067,107.21542778015137,0.0
98,7.096316492557525,-0.060048312041908455,34.75,49.882784080505374,14.925518774986267,105.85393161773682,0.0
99,7.082811844348908,-0.053451612498611155,34.74800033569336,48.84065942764282,16.239316940307617,104.50099754333496,0.0
100,7.084643065929413,-0.033657206548377824,34.73099975585937,50.82600746154785,16.084249591827394,103.77952308654787,0.0
101,7.0884199142456055,-0.014196226932108355,34.73024959564209,49.30586099624634,14.916971611976624,104.19717178344726,0.0
102,7.0934553146362305,0.001743481947050885,34.74400100708008,50.07753372192383,14.379731488227844,104.75784149169922,0.0
103,7.103755259513855,0.014597035991027902,34.75149974822998,49.39804649353027,17.593407344818115,104.89510345458984,0.0
104,7.111728286743164,0.01859981359448279,34.7599983215332,48.769841289520265,17.704517364501953,105.81110305786133,0.0
105,7.154034543037414,0.051524064969271366,34.7599983215332,50.188033962249754,16.409645438194275,105.7284761428833,0.0
106,7.184896469116211,0.06467235367745158,34.7599983215332,49.29853477478027,14.473748564720154,104.38254051208496,0.0
107,7.188558661937714,0.04946182221174237,34.76699981689453,49.67277183532715,15.815628671646119,104.65276679992678,0.0
108,7.188367819786071,0.030708198156207754,34.77100028991699,48.866910743713376,16.617826461791992,104.48507690429688,0.0
109,7.154644954204559,-0.01602259611318001,34.779998779296875,50.37912082672119,16.830891942977907,103.77051219940188,0.0
110,7.1324808359146115,-0.04063631678000087,34.779998779296875,49.60012226104736,15.84554319381714,103.55764770507812,0.0
111,7.104365646839142,-0.05758765274658795,34.78925075531006,50.26495704650879,14.561660647392273,103.53752899169922,0.0
112,7.088686835765839,-0.05522069316357371,34.79649982452393,48.64957256317139,16.719169712066652,103.91533737182617,0.0
113,7.073313069343567,-0.04875689446926113,34.80450019836426,50.44749689102173,17.19169750213623,103.86032390594482,0.0
114,7.048097252845764,-0.05145322335883971,34.810001373291016,50.390720462799074,17.148962116241456,103.62921352386475,0.0
115,7.042222499847412,-0.037557526491582345,34.81525049209595,48.81196565628052,15.302197813987732,103.59150161743165,0.0
116,7.038483893871307,-0.02579626897349948,34.81999969482422,49.00854682922363,17.123931646347046,104.448046875,0.0
117,7.020935702323913,-0.030610652547329614,34.829501724243165,49.780219841003415,17.924297332763672,104.5396224975586,0.0
118,6.997474527359008,-0.03915609940886495,34.830751705169675,50.943833923339845,17.76312518119812,103.8289661407471,0.0
119,7.003158593177796,-0.020633927675044073,34.84000015258789,49.86507930755615,16.615384006500243,103.09233360290527,0.0
120,7.055803096294403,0.03496223542606454,34.84000015258789,48.30097665786743,14.247252488136292,103.5066337585449,0.0
121,7.081972599029541,0.05464999312534922,34.845499229431155,48.587301349639894,16.915751028060914,107.33520240783692,0.0
122,7.0750297665596005,0.03792591392993921,34.849998474121094,50.36752128601074,15.929181432723999,108.13788528442383,0.0
123,7.061525344848633,0.012493885564617762,34.8564998626709,51.258852291107175,15.65689857006073,105.88088684082031,0.0
124,7.051988291740417,-0.009289987973170318,34.86000061035156,48.67704496383667,13.705738711357117,104.34871616363526,0.0
125,7.0379115581512455,-0.026615288620814637,34.86000061035156,48.660561847686765,13.69963359832764,104.6208305358887,0.0
126,7.033600807189941,-0.023134088097140133,34.868499183654784,50.29792423248291,15.935287141799927,104.82640991210937,0.0
127,7.0270775079727175,-0.02009498027618969,34.869998931884766,50.254578590393066,16.268010234832765,104.25847587585449,0.0
128,7.001518321037293,-0.03499706545844669,34.869998931884766,50.153235626220706,16.08241763114929,103.68747043609622,0.0
129,7.007622027397156,-0.017590360272151835,34.869998931884766,48.29853467941284,14.963369774818421,103.53752899169922,0.0
130,7.030663478374481,0.010196036304114335,34.87750053405762,50.1465202331543,14.789987778663635,103.53752899169922,0.0
131,7.026619911193848,0.007199498126283239,34.885000228881836,50.11416368484497,16.960317039489745,103.68145599365235,0.0
132,7.015060913562775,-0.0022220628487047865,34.88999938964844,50.535409164428714,16.926129817962646,104.44357357025146,0.0
133,6.998390197753906,-0.0172256035264581,34.88999938964844,48.04517707824707,16.107448315620424,103.93452415466308,0.0
134,6.986220836639404,-0.027719157002866212,34.896500778198245,49.051282024383546,14.838827991485596,104.42991485595704,0.0
135,6.98957792520523,-0.017309340042993376,34.900001525878906,50.7686203956604,17.021978282928465,104.80356292724609,0.0
136,7.008156192302704,0.0071670449835437074,34.90800018310547,50.186202144622804,16.473138570785522,104.89510345458984,0.0
137,7.00189973115921,0.00386767896270609,34.90999984741211,49.027472496032715,14.7692307472229,106.24316177368163,0.0
138,6.986144578456878,-0.009300905506825021,34.91274938583374,48.633089256286624,12.93895001411438,105.74158420562745,0.0
139,6.974585688114166,-0.01857860682066526,34.91999816894531,50.75457887649536,14.054334735870361,104.90362129211424,0.0
140,6.945554971694946,-0.04270649985410267,34.920498275756835,49.63064727783203,16.043956565856934,104.45727996826172,0.0
141,6.922322714328766,-0.052580530475825026,34.93000030517578,50.32051296234131,14.315018653869632,104.3302038192749,0.0
142,6.90725429058075,-0.04912799596786495,34.93000030517578,48.52930421829224,13.113553524017334,103.85132217407227,0.0
143,6.911793780326843,-0.02743807770311827,34.93000030517578,50.044566822052005,12.207570433616636,103.90150547027588,0.004310615547001358
144,6.900196778774261,-0.02471615881659086,34.93624925613403,50.76617822647095,14.350427556037904,104.60737609863281,0.0
145,6.8724250316619875,-0.03710399484261866,34.939998626708984,49.76495723724365,15.217338037490844,104.86761932373047,0.0
146,6.8654820561409,-0.030867402395233463,34.939998626708984,49.10378522872925,14.929181623458863,104.89510345458984,0.0
147,6.8666264653205875,-0.01997326610144223,34.939998626708984,48.517094421386716,13.937118458747864,104.01347904205322,0.0
148,6.867999839782715,-0.010872375767212308,34.94549980163574,50.60378513336182,14.95970721244812,103.84969482421874,0.0
149,6.86822874546051,-0.0024463324280077,34.95000076293945,50.06654462814331,15.901099491119385,104.43005828857422,0.0
150,6.8964582800865175,0.027198985473660238,34.95000076293945,50.0372407913208,15.711843729019165,103.93459434509278,0.0
151,6.967452025413513,0.08535099197179076,34.94925060272217,48.36996335983277,13.429792451858521,104.49793357849121,0.0
152,7.011169862747193,0.10314775034785266,34.9477502822876,50.213675308227536,14.722222161293029,106.55039596557617,0.0
153,6.9844279289245605,0.04975898633711036,34.95200042724609,49.75457887649536,14.671550583839416,107.70094947814941,0.0
154,6.941549456119537,-0.011567420350252147,34.959999084472656,50.40231990814209,14.000610303878783,107.10259590148925,0.0
155,6.918774974346161,-0.04472632193937892,34.96024913787842,48.97069606781006,13.031135654449463,105.55780830383301,0.0
156,6.892071342468261,-0.06635297723114486,34.970001220703125,49.53724069595337,13.669108581542968,105.11795578002928,0.0
157,6.880779337882996,-0.05543832834810013,34.970001220703125,48.97741146087647,15.910866832733154,104.98687744140622,0.0
158,6.872386860847473,-0.038909685891121586,34.970001220703125,50.45421257019043,16.19047656059265,104.7497205734253,0.0
159,6.851977610588074,-0.03976545147597785,34.975750255584714,50.88095226287842,15.77960991859436,103.9549388885498,0.0
160,6.817567980289459,-0.05552628394216295,34.97999954223633,48.50122117996216,13.525030708312988,103.69428100585938,0.0
161,6.774040937423706,-0.07677829936146732,34.97999954223633,48.45848608016968,14.576923274993897,104.42986755371093,0.0
162,6.765991747379303,-0.06133623514324421,34.97999954223633,50.3675217628479,15.979853630065918,104.82870788574219,0.0
163,6.783921241760254,-0.023086436931043817,34.98325023651123,50.72222242355347,15.734432578086853,104.69478263854981,0.004310615547001358
164,6.764809155464173,-0.02515104089397932,34.98300018310547,48.88583641052246,13.972527575492858,104.76572437286377,0.012931846641004075
165,6.752067565917969,-0.021571321086958008,34.98925151824951,50.26556768417358,15.009157538414001,109.58874797821045,0.004310615547001358
166,6.766029822826385,-0.0005147735282662225,34.9900016784668,49.435286903381346,16.170940160751343,109.53484916687012,0.0014368718490004526
167,6.755081355571747,-0.010702626535203255,34.9900016784668,49.09523820877075,15.135530948638916,106.3379093170166,0.0
168,6.7323832511901855,-0.02664871672168369,34.9900016784668,48.89194164276123,13.14529914855957,107.07132339477539,0.0
169,6.725135087966919,-0.024166553467512078,34.9900016784668,50.59584875106812,14.227106094360352,109.87832221984863,0.0
170,6.694120597839356,-0.04648458007723089,34.9900016784668,50.85164842605591,14.123321080207825,110.29324512481689,0.0
171,6.67340612411499,-0.05164593011140819,34.9900016784668,49.59645891189575,13.60073254108429,107.37935028076171,0.0
172,6.670506930351257,-0.03662550756707782,34.9900016784668,49.224053382873535,12.062271285057067,105.6474781036377,0.0
173,6.684888744354248,-0.007978919742163252,34.9900016784668,49.305860710144046,13.931623935699463,109.35141372680664,0.0
174,6.760193157196045,0.06855974039062854,34.9900016784668,49.841269969940186,14.112331962585449,111.76545333862305,0.0
175,6.764008045196533,0.060565851815044834,34.992251300811766,50.077533626556395,12.858363890647889,109.83877258300781,0.0
176,6.736846506595612,0.020018823177088012,35.0,49.382784366607666,11.75030484199524,108.99611854553223,0.0
177,6.732535779476166,0.0034181153721874373,35.0,50.545177173614505,13.960927772521973,111.283123588562,0.0
178,6.708655047416687,-0.030336550250649408,34.99675054550171,50.11904735565186,14.694138884544373,112.19282779693603,0.0
179,6.688551032543183,-0.045777391642332035,35.0,48.72100124359131,14.97557978630066,107.96126880645753,0.0
180,6.680082058906555,-0.03644958916120227,35.0,48.609279537200926,13.998779249191283,106.38298034667966,0.0
181,6.687253952026367,-0.016538859740830917,35.0,50.23626346588135,15.470696425437927,108.05593814849854,0.0
182,6.6806924700737,-0.013215334829874298,35.0,50.39010953903198,16.15811939239502,106.91391048431396,0.0
183,6.66669203042984,-0.018059541913680692,35.0,50.01037826538086,15.197191286087037,105.14494953155517,0.0
184,6.662571907043457,-0.014853295753709925,35.0,48.65750894546509,12.686202526092528,104.30297088623047,0.0
185,6.659367740154266,-0.014223088929429611,35.0,49.382784080505374,14.99694745540619,107.43405055999756,0.0
186,6.632969129085541,-0.0331328025553375,35.0,50.44139175415039,14.845543313026429,108.44097785949707,0.0
187,6.6165272951126095,-0.03723190361633892,34.99725046157837,49.45177011489868,14.116605544090271,106.4991807937622,0.0
188,6.610652446746826,-0.03061060281470414,34.993251132965085,49.51037855148316,12.985958790779113,106.25955924987792,0.0
189,6.61404767036438,-0.016848863457562348,35.0,49.690475940704346,14.79853458404541,107.9974328994751,0.0
190,6.629535758495331,0.006472694626427217,35.0,48.85470066070557,15.507325673103333,108.58998813629151,0.0
191,6.601649498939514,-0.015746537858649347,35.0,50.02380971908569,15.58669092655182,105.41105690002442,0.0
192,6.585741639137268,-0.02496769102290268,35.00224962234497,49.58180704116821,14.4694748878479,104.22154712677002,0.0
193,6.594134330749512,-0.012008828693069467,35.0099983215332,49.570817947387695,14.680097675323486,104.63461971282959,0.0
194,6.589518475532532,-0.013050552411004853,35.0099983215332,49.56898622512817,15.666666722297668,104.85616760253906,0.0
195,6.57841739654541,-0.016440754849463644,35.0099983215332,50.354090213775635,13.925518894195557,104.5855167388916,0.0
196,6.5510650992393495,-0.0330095788929611,35.0099983215332,48.85470104217529,12.506105375289918,104.02730159759521,0.0
197,6.549691772460937,-0.025892130541615137,35.007748699188234,49.91025638580322,13.106837582588195,104.5936351776123,0.0
198,6.573229169845581,0.0036335277342004644,35.0,49.8223443031311,14.351648378372193,104.8630386352539,0.0
199,6.592608451843262,0.02442094888538118,35.0,49.55006103515625,14.204517698287964,104.91357097625732,0.02909665554761885
200,6.582308399677276,0.013290949378278996,35.00699882507324,48.4841272354126,12.15750913619995,106.90178890228272,0.04310615547001358
201,6.57311487197876,0.00195151283551235,35.0099983215332,49.74969472885132,13.55067138671875,108.17161083221436,0.008621231094002715
202,6.583262193202972,0.006113058140181192,35.0099983215332,49.89926729202271,13.749695014953613,111.03849296569824,0.024426821433007694
203,6.589900016784668,0.007047873025294342,35.0099983215332,50.48962144851684,12.742368960380555,108.82296485900879,0.0
204,6.587115144729614,0.0035306807671531258,35.0099983215332,49.39377241134643,10.221000909805298,108.92766799926758,0.00574748739600181
205,6.588488471508026,0.005327983941060623,35.0099983215332,50.02014694213867,10.599511671066285,111.15359115600586,0.010058102943003168
206,6.575327229499817,-0.0095352815049409,35.0099983215332,49.692307758331296,11.68742322921753,107.8254165649414,0.0
207,6.556749224662781,-0.025567713612690512,35.0099983215332,48.67948751449585,11.982905960083007,105.7745231628418,0.004310615547001358
208,6.55793182849884,-0.017892117192968675,35.0099983215332,49.849816703796385,12.173381900787353,107.30187911987305,0.0
209,6.604739499092102,0.03149071426960287,35.0099983215332,50.4017092704773,12.900488424301148,107.8582374572754,0.0
210,6.661008095741272,0.07756248656660314,35.00399932861328,50.27838830947876,13.483516359329224,106.19706649780274,0.01724246218800543
211,6.645748770236969,0.04800369944423433,35.0,49.203296947479245,12.824786615371703,105.28873825073242,0.0
212,6.623966228961945,0.012364012515172319,35.0,48.71123323440552,11.909645938873291,105.93018836975098,0.0
213,6.610728824138642,-0.01317900985632146,35.0,49.56410264968872,13.95665419101715,108.95726718902588,0.0
214,6.592989838123321,-0.036463606543838935,35.0,50.161782836914064,14.056166124343871,109.54399337768555,0.0
215,6.568269896507263,-0.049205558933317614,35.0,50.44139184951782,13.484737157821655,106.89347019195557,0.0
216,6.563882827758789,-0.035456117941066574,35.0,49.15934066772461,12.098900842666627,105.58802528381348,0.01149497479200362
217,6.557931792736054,-0.027017053822055416,35.00074987411499,49.4706955909729,12.516483402252197,106.92308311462402,0.0
218,6.53740804195404,-0.033838615613058155,35.00224962234497,49.215506649017335,14.014652252197266,108.01131744384766,0.0
219,6.52512446641922,-0.03127704593352969,35.0,50.97191686630249,13.347985649108887,106.57149848937988,0.0
220,6.518982493877411,-0.02634516311809415,35.0,49.37728929519653,12.676434874534609,104.39464950561523,0.0
221,6.504181063175201,-0.030513383448123887,35.0,49.366911029815675,12.60378544330597,104.23529777526855,0.0
222,6.506012189388275,-0.01651857515535082,35.0,49.67704524993896,14.391941595077515,104.75319442749023,0.0
223,6.522186923027038,0.00603126594360216,35.0,48.616605854034425,14.236263418197632,104.59685668945312,0.0
224,6.508606314659119,-0.004641511339286758,35.00324945449829,49.82539672851563,14.43467619419098,105.23835754394531,0.0
225,6.524437725543976,0.013008936170047006,34.9972487449646,50.181929397583005,14.576312732696532,106.99862899780274,0.0
226,6.541184663772583,0.025284380745142648,34.959999084472656,50.3998779296875,14.116605401039124,108.5587547302246,0.0
227,6.558008062839508,0.03244145330972965,34.959999084472656,48.61538467407227,12.54884011745453,106.22222137451172,0.0
228,6.564455115795136,0.029888509120792096,34.992249202728274,50.01892585754395,14.516483449935913,105.30493431091308,0.0
229,6.5690710067749025,0.02401828402653332,35.007998657226565,50.07509174346924,15.859584975242615,105.06044483184812,0.0
230,6.57311487197876,0.016512728226371058,35.007998657226565,50.45115985870361,15.565933752059937,104.98687744140622,0.0
231,6.5706351637840275,0.006274826735898351,35.00649890899658,49.015262603759766,14.266178321838378,105.04237728118895,0.027839391864836183
232,6.573038399219513,0.004913210316472296,35.00624895095825,49.44993877410889,14.345543479919433,107.30759010314941,0.0
233,6.607142853736877,0.03346300055272873,35.0099983215332,48.64774112701416,16.526861906051636,111.1371395111084,0.0
234,6.6212196230888365,0.0376672606915235,35.0099983215332,50.432234382629396,16.258851838111877,108.3567590713501,0.0
235,6.629383254051208,0.03496148935519154,35.01800003051758,49.600122165679934,14.166666722297668,104.97322330474853,0.0
236,6.616985130310058,0.012124493942246748,35.02574949264526,49.955433464050294,12.02686185836792,104.05062847137451,0.0
237,6.601916539669037,-0.010739230772014658,35.029998779296875,50.608669185638426,13.442002439498902,105.44459476470948,0.0
238,6.594325065612793,-0.020064669987186746,35.029998779296875,48.803418731689455,13.106226801872253,107.34904098510742,0.0
239,6.585589230060577,-0.02358269728720184,35.033999633789065,48.42002449035645,11.469474792480469,108.31225509643555,0.0
