sec,SCL,SCR,TEMP,BVP,PVA,HR,MOTION
0,4.7212515592575075,0.0010000000474974,33.66224946975708,49.47313804626465,0.0,30.0,0.0
1,4.672650861740112,0.0010000000474974,33.682749080657956,51.93711853027344,0.0,30.0,0.016524026356637463
2,4.6520889639854435,0.3220648859074572,33.700750064849856,47.54151391983032,0.0,30.0,0.0
3,4.651440382003784,-0.034363596228649824,33.716000366210935,51.09401712417603,0.0,30.0,0.0
4,4.682187891006469,-0.00377627555426443,33.727000045776364,47.80891337394714,0.5787545680999756,32.714285659790036,0.0
5,4.660519707202911,-0.009108109050430345,33.73700103759766,56.85347995758057,5.787545680999756,57.14285659790039,0.12877963669598097
6,4.5693456649780275,-0.08481300882995124,33.74925012588501,47.81196556091309,6.041513919830322,56.00517044067383,0.16003159917891022
7,4.509910809993744,-0.11854970194399353,33.7619987487793,48.57570190429688,6.422466278076172,54.298641204833984,0.23241401948034762
8,4.529328238964081,-0.07205863967537875,33.772749996185304,49.15811986923218,6.422466278076172,54.298641204833984,0.16829361282289024
9,4.565530860424042,-0.012398354815377358,33.78324947357178,49.85042715072632,6.422466278076172,54.298641204833984,0.09680923894047735
10,4.5730461239814755,0.016889747628010772,33.793750286102295,49.79304037094116,6.422466278076172,54.298641204833984,0.033407270908355685
11,4.5528275728225704,0.0062282845563458745,33.804250144958495,49.335775184631345,6.422466278076172,54.298641204833984,0.0
12,4.515327894687653,-0.031842689518816726,33.82000036239624,49.819292068481445,6.422466278076172,54.298641204833984,0.0
13,4.50079345703125,-0.04466832485049957,33.83000183105469,49.796092700958255,6.422466278076172,54.298641204833984,0.0
14,4.489959442615509,-0.04411746598780149,33.83600082397461,49.8321120262146,6.422466278076172,54.298641204833984,0.0
15,4.480269908905029,-0.03671588436700397,33.84000015258789,49.12820501327515,6.422466278076172,54.298641204833984,0.0
16,4.495376443862915,-0.00532658672600518,33.84724893569946,49.76190452575683,6.422466278076172,54.298641204833984,0.0
17,4.525475311279297,0.029097965685650644,33.849998474121094,49.75824184417725,10.004883956909179,53.736931228637694,0.0
18,4.547067081928253,0.044480680860578964,33.85850028991699,49.75213680267334,42.24664306640625,48.68154144287109,0.0
19,4.549890065193177,0.03600416751578446,33.862750148773195,50.15873031616211,42.24664306640625,48.68154144287109,0.0
20,4.532799696922302,0.007366528971760974,33.869998931884766,50.46275959014893,42.24664306640625,48.68154144287109,0.0
21,4.509834563732147,-0.02287595700472589,33.87074909210205,48.30097694396973,42.24664306640625,48.68154144287109,0.0
22,4.50144202709198,-0.029217276256531432,33.880001068115234,49.8931622505188,42.24664306640625,48.68154144287109,0.0
23,4.5539338231086735,0.02631265380622378,33.88200073242187,49.30402917861939,42.24664306640625,48.68154144287109,0.0
24,4.653462362289429,0.11513206753879779,33.88999938964844,50.8534797668457,19.407814574241637,48.38338565826415,0.0
25,4.689702987670898,0.1233657291159033,33.88999938964844,49.732600688934326,5.689865589141846,46.296295166015625,0.0
26,4.670896112918854,0.07257606945931903,33.89700088500977,48.828448963165286,5.689865589141846,46.296295166015625,0.0
27,4.6660895347595215,0.03434711182489984,33.900001525878906,49.829670429229736,5.689865589141846,46.296295166015625,0.0
28,4.658993780612946,-0.0008077388250967426,33.908250141143796,49.832112312316895,5.689865589141846,46.296295166015625,0.0
29,4.644077849388123,-0.024611188005655947,33.91524896621704,50.10195350646973,5.689865589141846,46.296295166015625,0.0
30,4.626186442375183,-0.0331320636440068,33.91999816894531,49.30463991165161,5.689865589141846,46.296295166015625,0.0
31,4.606768941879272,-0.03984644077718254,33.91349925994873,49.7851037979126,5.689865589141846,46.296295166015625,0.0
32,4.586550486087799,-0.04580537639558311,33.90999984741211,49.59768018722534,5.689865589141846,46.296295166015625,0.0
33,4.570757210254669,-0.04449790949001904,33.90999984741211,50.90659370422363,6.364468824863434,55.62423667907715,0.09896454717963929
34,4.534669041633606,-0.06144974036142224,33.90725030899048,49.36263732910156,7.277167320251465,65.93406677246094,0.00574748739600181
35,4.470999789237976,-0.09870675504207604,33.90425081253052,45.69413924217224,8.046398210525513,65.93406677246094,0.8026725195348263
36,4.4297616362571715,-0.10557266902178519,33.90300102233887,51.26373634338379,11.033577966690064,76.13913230895996,1.0887895964086056
37,4.447729432582856,-0.05591472908854478,33.90999984741211,50.35531129837036,17.08058648109436,81.70641460418702,0.6760481771081686
38,4.445707440376282,-0.03176826173439616,33.90875005722046,51.01220998764038,16.941392278671266,73.80799617767335,0.4159743897616863
39,4.461195755004883,0.004276366464910082,33.900001525878906,48.00000009536743,10.158730506896973,67.49156188964844,0.2561224039644002
40,4.465926170349121,0.016722461208701085,33.900001525878906,50.66605596542358,10.158730506896973,67.49156188964844,0.037717886269092525
41,4.473898887634277,0.019180034450255276,33.900001525878906,50.15873022079468,10.158730506896973,67.49156188964844,0.0
42,4.464590907096863,0.0035138618039127073,33.900001525878906,49.17399272918701,10.158730506896973,67.49156188964844,0.0
43,4.453375339508057,-0.009979806572664465,33.900001525878906,49.57997598648071,10.158730506896973,67.49156188964844,0.0
44,4.4431897640228275,-0.0191777389030903,33.900001525878906,49.510988807678224,10.158730506896973,67.49156188964844,0.0
45,4.4243065357208256,-0.03204864077270025,33.902001190185544,49.54945077896118,10.158730506896973,67.49156188964844,0.0
46,4.4070634841918945,-0.037993830721825286,33.90999984741211,49.32295503616333,10.158730506896973,67.49156188964844,0.0
47,4.394741654396057,-0.036426529474556366,33.90999984741211,50.00671577453613,10.158730506896973,67.49156188964844,0.0
48,4.381199049949646,-0.03585457224398843,33.9107497215271,49.8528694152832,10.158730506896973,67.49156188964844,0.0
49,4.367046129703522,-0.03507767580449572,33.91999816894531,50.04090404510498,10.158730506896973,67.49156188964844,0.0
50,4.3547242999076845,-0.03258939748629919,33.92524929046631,49.2716724395752,10.158730506896973,67.49156188964844,0.0
51,4.340418672561645,-0.033616245398297814,33.93000030517578,49.9017092704773,10.158730506896973,63.80034294128418,0.0
52,4.318979442119598,-0.04085244974121448,33.93324975967407,49.42246646881104,10.158730506896973,62.72869873046875,0.0
53,4.301889061927795,-0.04227459654211998,33.94074878692627,50.03968276977539,10.158730506896973,62.72869873046875,0.0
54,4.2869350671768185,-0.04132493669167161,33.95100059509277,49.3840051651001,10.158730506896973,62.72869873046875,0.0
55,4.271942770481109,-0.039925842452794305,33.959999084472656,49.310744762420654,10.158730506896973,62.72869873046875,0.0
56,4.263473987579347,-0.032308047357946616,33.96550025939941,49.844322204589844,10.158730506896973,62.72869873046875,0.0
57,4.251876842975617,-0.029541766643524137,33.970001220703125,50.015262603759766,10.158730506896973,62.72869873046875,0.0
58,4.23894464969635,-0.029620791692286697,33.97675008773804,49.62698392868042,10.158730506896973,62.72869873046875,0.0
59,4.225859880447388,-0.03037064638920125,33.98400039672852,49.76678876876831,10.158730506896973,62.72869873046875,0.0
60,4.212584292888641,-0.03169206264428792,33.99150142669678,50.142246627807616,6.257631468772888,62.72869873046875,0.0
61,4.203505039215088,-0.028733585216104952,34.00524911880493,48.74908418655396,1.8070818185806279,62.72869873046875,0.0
62,4.20449686050415,-0.016863336996175295,34.015749549865724,49.96581192016602,1.8070818185806279,62.72869873046875,0.0
63,4.196333193778992,-0.01631768662482495,34.02999887466431,49.73015909194946,1.8070818185806279,62.72869873046875,0.0
64,4.180501699447632,-0.023257303191348867,34.044000244140626,50.15811986923218,1.8070818185806279,62.72869873046875,0.0
65,4.164098024368286,-0.030421600025147166,34.05900068283081,49.03785095214844,1.8070818185806279,62.72869873046875,0.0
66,4.146969521045685,-0.03708311906084415,34.07525081634522,49.855921840667726,1.8070818185806279,62.72869873046875,0.0
67,4.135982882976532,-0.035563544556498496,34.08575086593628,49.75579957962036,1.8070818185806279,62.72869873046875,0.0
68,4.121639096736908,-0.03537188125774261,34.09949855804443,49.83272304534912,1.8070818185806279,62.72869873046875,0.0
69,4.10760065317154,-0.03457442140206691,34.11350002288818,49.42735052108765,1.8070818185806279,62.72869873046875,0.0
70,4.093447661399841,-0.03420922076329584,34.12725048065185,49.75274705886841,1.8070818185806279,62.72869873046875,0.0
71,4.078836917877197,-0.03504727184772487,34.14000005722046,49.51648359298706,1.8070818185806279,62.72869873046875,0.0
72,4.064645802974701,-0.035399210173636626,34.15550060272217,49.37118434906006,1.8070818185806279,62.72869873046875,0.016344417445361602
73,4.043549931049347,-0.041870804596692277,34.172498893737796,50.54884023666382,2.774114826321602,62.72869873046875,0.16847321819514033
74,4.010895085334778,-0.05682273022830481,34.1834997177124,51.17826581001282,2.979243040084839,62.72869873046875,0.0
75,3.9986495971679688,-0.04950354471802705,34.1977499961853,48.487179374694826,2.979243040084839,62.72869873046875,0.0093396671116352
76,3.9961700081825255,-0.03427113071084017,34.214750099182126,49.663614177703856,2.979243040084839,64.4756866455078,0.2245112249627709
77,3.9859462440013886,-0.028512039966881238,34.23025026321411,49.43650779724121,2.979243040084839,67.7200927734375,0.0
78,3.9696188509464263,-0.029325785720720848,34.24600067138672,48.90964574813843,2.979243040084839,67.7200927734375,0.0
79,3.963782179355621,-0.023296205885708292,34.262999057769775,50.38827838897705,6.686202526092529,71.47767791748046,0.0
80,3.948866230249405,-0.029152975417673532,34.28075008392334,49.7783881187439,9.157508850097656,73.98273468017578,0.0
81,3.9309366226196287,-0.03540125340223305,34.30175065994263,49.5152624130249,9.157508850097656,73.98273468017578,0.0
82,3.915181440114975,-0.03720735944807522,34.32000036239624,49.36507959365845,9.157508850097656,73.98273468017578,0.0
83,3.8982818126678467,-0.04005436878651372,34.33575086593628,49.85592164993286,9.157508850097656,73.98273468017578,0.0
84,3.8816491782665254,-0.0412325748242437,34.34874973297119,49.64224672317505,9.157508850097656,73.98273468017578,0.0
85,3.8666188716888428,-0.039544879924505866,34.37000026702881,49.52625160217285,9.157508850097656,73.98273468017578,0.0
86,3.8564714312553408,-0.03409275175072244,34.38800001144409,49.780219650268556,9.157508850097656,73.98273468017578,0.0
87,3.842814415693283,-0.03331658756360403,34.404750728607176,49.766788959503174,9.157508850097656,73.98273468017578,0.0
88,3.8188573837280275,-0.0420173736289143,34.42074890136719,49.89133129119873,9.157508850097656,73.98273468017578,0.0
89,3.8053148329257964,-0.039894961100071666,34.43574934005737,49.697802257537845,9.157508850097656,73.98273468017578,0.0
90,3.7923062980175017,-0.03796060020104051,34.44650001525879,49.3919415473938,9.157508850097656,73.98273468017578,0.0
91,3.7767036855220795,-0.038098611589521165,34.45774974822998,49.58974390029907,9.157508850097656,73.98273468017578,0.0
92,3.7682729780673982,-0.03077698075212536,34.47575073242187,49.89010992050171,9.157508850097656,73.98273468017578,0.0
93,3.7543870151042937,-0.031047744071111067,34.49525079727173,49.61904754638672,9.157508850097656,73.98273468017578,0.0
94,3.7407300233840943,-0.031960195722058396,34.51424980163574,50.17826623916626,9.542124462127685,73.90316009521484,0.0
95,3.724936693906784,-0.03461298272013663,34.53249950408936,49.313186931610105,4.677655816078186,96.51325759887695,0.0
96,3.712080752849579,-0.03412565817125139,34.557250595092775,49.68253965377808,4.737484931945801,105.82010650634766,0.0
97,3.7015137016773223,-0.031754890969023085,34.57425060272217,49.52258825302124,4.737484931945801,105.82010650634766,0.0
98,3.6866740465164183,-0.03291395199485121,34.5892502784729,49.78876667022705,4.737484931945801,105.82010650634766,0.0
99,3.6755729973316194,-0.030733859864994845,34.61024990081787,49.913919353485106,4.737484931945801,105.82010650634766,0.0
100,3.6624500274658205,-0.031091581191867546,34.626000213623044,49.48473768234253,4.737484931945801,105.82010650634766,0.0
101,3.6506622672080993,-0.030591838061809495,34.64275016784668,49.45970706939697,4.737484931945801,105.82010650634766,0.0
102,3.64066743850708,-0.028293350804597085,34.66124963760376,49.91452989578247,4.737484931945801,105.82010650634766,0.0
103,3.6302911162376406,-0.026982348971068798,34.67899961471558,49.725885200500485,4.737484931945801,105.82010650634766,0.0
104,3.6195715188980104,-0.0265034482814371,34.69724941253662,48.962759494781494,4.737484931945801,105.82010650634766,0.0
105,3.6121707916259767,-0.0231803349219262,34.71274967193604,49.702685832977295,4.737484931945801,105.82010650634766,0.0
106,3.6064867258071898,-0.019498229119926623,34.726000213623045,50.13125782012939,4.737484931945801,105.82010650634766,0.0
107,3.596415627002716,-0.020807331521063982,34.737500953674314,49.92307720184326,4.737484931945801,105.82010650634766,0.0
108,3.58569598197937,-0.022588232625275786,34.75724878311157,49.747863101959226,4.737484931945801,105.82010650634766,0.0
109,3.5762733697891234,-0.02330479742959135,34.77274923324585,49.84859571456909,4.737484931945801,105.82010650634766,0.0
110,3.5650578260421755,-0.02552582998760038,34.79100017547607,49.632478618621825,4.737484931945801,105.82010650634766,0.0
111,3.553765970468521,-0.026739255385473348,34.808749961853025,49.52197790145874,4.737484931945801,105.82010650634766,0.0
112,3.543046373128891,-0.026670343847945303,34.82350044250488,49.46214876174927,4.737484931945801,105.82010650634766,0.0
113,3.5330134272575378,-0.026259920233860583,34.83775053024292,49.55006113052368,4.737484931945801,105.82010650634766,0.0
114,3.522217470407486,-0.026293344516307087,34.854499435424806,49.81135549545288,4.737484931945801,105.82010650634766,0.0
115,3.5127948760986327,-0.025114895030856094,34.865249729156496,49.645299434661865,4.737484931945801,105.82010650634766,0.0
116,3.501846379041672,-0.02568741547875103,34.881750392913816,49.64774122238159,4.737484931945801,105.82010650634766,0.0
117,3.490401899814606,-0.02668452896177765,34.89625072479248,49.74969472885132,4.737484931945801,105.82010650634766,0.0
118,3.479453432559967,-0.026947302557527975,34.9107497215271,49.469474697113036,4.737484931945801,105.82010650634766,0.0
119,3.4683904707431794,-0.027407949045300438,34.924499130249025,49.781440830230714,4.737484931945801,105.82010650634766,0.0
120,3.4516815721988676,-0.032616625446826156,34.939999389648435,49.5695969581604,4.737484931945801,105.82010650634766,0.0
121,3.432950812578201,-0.03829530738294117,34.958000373840335,49.70024433135986,4.737484931945801,105.82010650634766,0.0
122,3.4189886152744293,-0.038132770359516066,34.97300071716309,50.10012245178223,4.737484931945801,105.82010650634766,0.0
123,3.409298998117447,-0.03363988837227218,34.98725099563599,49.70329656600952,4.737484931945801,105.82010650634766,0.0
124,3.400677520036697,-0.028332635015249196,35.00074987411499,49.64285688400268,4.737484931945801,105.82010650634766,0.0
125,3.393353056907654,-0.023001567600294884,35.014499282836915,49.520146465301515,4.737484931945801,105.82010650634766,0.0
126,3.3857615768909453,-0.020160940522327957,35.02824907302856,49.52197818756103,4.737484931945801,105.82010650634766,0.0
127,3.377330851554871,-0.019872176088392667,35.0390007019043,49.683760738372804,4.737484931945801,105.82010650634766,0.0
128,3.3691289842128755,-0.01991531411185854,35.05275001525879,49.64102554321289,4.737484931945801,105.82010650634766,0.0
129,3.3595919728279116,-0.02143346872180694,35.06725015640259,49.71367540359497,4.737484931945801,105.82010650634766,0.0
130,3.351161241531372,-0.021467869635671308,35.07750129699707,49.96337003707886,4.737484931945801,105.82010650634766,0.0
131,3.3435697674751284,-0.020670279441401294,35.08500099182129,49.67338228225708,4.737484931945801,105.82010650634766,0.0
132,3.3335367798805238,-0.02205207860097282,35.09574918746948,49.52747268676758,4.737484931945801,105.82010650634766,0.0
133,3.3233131051063536,-0.023297045892104434,35.10624980926514,49.72283306121826,4.737484931945801,105.82010650634766,0.0
134,3.3133945643901823,-0.024000549642369088,35.1169994354248,49.51648368835449,4.737484931945801,105.82010650634766,0.0
135,3.3031326830387115,-0.024894079519435737,35.12449989318848,49.52564077377319,4.737484931945801,105.82010650634766,0.0
136,3.2930234491825106,-0.025032784510403843,35.131500816345216,49.75030527114868,4.737484931945801,105.82010650634766,0.0
137,3.285470151901245,-0.022699658200144742,35.13999938964844,49.54090375900269,4.737484931945801,105.82010650634766,0.0
138,3.2776879251003264,-0.021159491362050153,35.14575061798096,49.85897426605224,4.737484931945801,105.82010650634766,0.0
139,3.27055424451828,-0.01944543598219749,35.150001525878906,50.94505500793457,4.737484931945801,105.82010650634766,0.0
140,3.2624668061733244,-0.019208114827051728,35.15725030899048,48.161172199249265,4.737484931945801,105.82010650634766,0.0
141,3.2538071632385255,-0.019901034981012315,35.16449909210205,50.00854730606079,4.737484931945801,105.82010650634766,0.0
142,3.2463682770729063,-0.019611889403313355,35.17499923706055,49.39987802505493,4.737484931945801,105.82010650634766,0.0
143,3.238090139627457,-0.019914039829745846,35.18574934005737,49.688644599914554,4.737484931945801,105.82010650634766,0.0
144,3.229659402370453,-0.020370243303477725,35.19624996185303,49.923076915740964,4.737484931945801,105.82010650634766,0.0
145,3.2206183195114138,-0.021036067511886317,35.20674962997437,49.52014627456665,4.737484931945801,105.82010650634766,0.0
146,3.2130649745464326,-0.020393989607691725,35.2109992980957,49.94505491256714,4.737484931945801,105.82010650634766,0.0
147,3.204176479578018,-0.021013492392376022,35.22200088500976,49.57448120117188,4.737484931945801,105.82010650634766,0.0
148,3.1956312716007234,-0.02100505926646288,35.23225002288818,49.66971912384033,4.737484931945801,105.82010650634766,0.0
149,3.1934187412261963,-0.015289740357547942,35.24300117492676,49.59706974029541,4.737484931945801,105.82010650634766,0.0
150,3.187925338745117,-0.014020774513483,35.25049991607666,49.539071273803714,4.737484931945801,105.82010650634766,0.0
151,3.1799142360687256,-0.015425003343261717,35.2599983215332,49.83150177001953,4.737484931945801,105.82010650634766,0.0
152,3.172627943754196,-0.01630805369932199,35.264499282836915,49.61233224868774,4.737484931945801,105.82010650634766,0.0
153,3.1631672024726867,-0.019471274968236623,35.275249576568605,49.80830278396606,4.737484931945801,105.82010650634766,0.0
154,3.153592038154602,-0.021812501363456194,35.2890007019043,49.738095378875734,4.737484931945801,105.82010650634766,0.0
155,3.145161306858063,-0.021796584641560854,35.29649982452393,49.510378456115724,4.737484931945801,105.82010650634766,0.0
156,3.136272782087326,-0.02211257652379567,35.30349998474121,49.75579986572266,4.737484931945801,105.82010650634766,0.0
157,3.125667595863342,-0.02354196254163975,35.310001373291016,49.70329656600952,4.737484931945801,105.82010650634766,0.0
158,3.1183431327342985,-0.021666284138336718,35.318249988555905,49.45604391098023,4.737484931945801,105.82010650634766,0.0
159,3.1096453726291657,-0.021591875469312013,35.32575092315674,49.78632488250732,4.737484931945801,105.82010650634766,0.0
160,3.1021301746368413,-0.020375594496726927,35.33300132751465,49.686202716827395,4.737484931945801,105.82010650634766,0.0
161,3.0948820233345034,-0.019163110712543067,35.34000015258789,49.54456663131714,4.737484931945801,105.82010650634766,0.0
162,3.0877483546733857,-0.01842306260950857,35.34724893569946,49.75518932342529,4.737484931945801,105.82010650634766,0.0
163,3.0795083582401275,-0.019012047862633996,35.35149879455567,49.722222328186035,4.737484931945801,105.82010650634766,0.0
164,3.072107595205307,-0.018676786497235236,35.36000061035156,49.56959705352783,4.737484931945801,105.82010650634766,0.0
165,3.067453557252884,-0.016181718395091527,35.363000106811526,49.62454204559326,4.737484931945801,105.82010650634766,0.0
166,3.060625022649765,-0.016128902439959285,35.369998931884766,49.77472524642944,4.737484931945801,105.82010650634766,0.0
167,3.0531098425388334,-0.016796519421040993,35.377000427246095,49.54884014129639,4.737484931945801,105.82010650634766,0.0
168,3.045365756750107,-0.017602034145966155,35.380001068115234,49.68192911148071,4.737484931945801,105.82010650634766,0.0
169,3.0415127277374268,-0.014966808073222603,35.385000228881836,49.676434707641604,4.737484931945801,105.82010650634766,0.0
170,3.040024995803833,-0.010686717671342152,35.38999938964844,49.860805702209475,4.737484931945801,105.82010650634766,0.0
171,3.031823182106018,-0.013377747102640527,35.38999938964844,50.886446952819824,5.643467617034912,122.3609230041504,0.0
172,3.020760232210159,-0.018307027220725972,35.39375019073486,49.041513729095456,6.031745910644531,129.44984436035156,0.0
173,3.0209128320217133,-0.011925390087708338,35.401001358032225,45.47557997703552,6.031745910644531,129.44984436035156,0.0
174,3.0804620325565337,0.04699874534271652,35.40999984741211,51.55860824584961,8.395604705810547,98.89377136230468,0.0
175,3.147526466846466,0.09821474775671953,35.40999984741211,51.395604610443115,8.98656940460205,91.25475311279295,0.0
176,3.1545075595378878,0.08128622584044927,35.40999984741211,49.408424949646,8.98656940460205,91.25475311279295,0.0
177,3.141003155708313,0.0434073596261441,35.40999984741211,49.16788787841797,8.98656940460205,91.25475311279295,0.0
178,3.1324961185455327,0.011062279259112934,35.40999984741211,49.877289390563966,8.568986940383912,90.08156433105468,0.0
179,3.1301310062408447,-0.007878055982291653,35.40999984741211,50.27838792800903,4.810744762420654,79.52286529541016,0.0
180,3.12898650765419,-0.01091191968880589,35.40999984741211,49.940781593322754,4.810744762420654,79.52286529541016,0.0
181,3.120021665096283,-0.01382483581546689,35.40999984741211,49.047619342803955,4.810744762420654,79.52286529541016,0.0
182,3.1079668402671814,-0.019087319402024093,35.40999984741211,49.672771549224855,4.810744762420654,79.52286529541016,0.0
183,3.101977586746216,-0.0187496253754943,35.40999984741211,49.78266162872315,4.810744762420654,79.52286529541016,0.0
184,3.0968657314777372,-0.01761900093406432,35.40999984741211,49.918192863464355,4.810744762420654,79.52286529541016,0.0
185,3.0879009783267977,-0.019083151035010754,35.40999984741211,49.1996337890625,4.810744762420654,79.52286529541016,0.0
186,3.078897994756699,-0.019681085040792756,35.40999984741211,49.72039089202881,4.810744762420654,79.52286529541016,0.0
187,3.07161169052124,-0.019324189238250186,35.407000350952146,49.708791160583495,4.810744762420654,79.52286529541016,0.0
188,3.047845387458801,-0.03456555232405657,35.400001525878906,49.739926719665526,4.810744762420654,79.52286529541016,0.0
189,3.020340585708618,-0.04852418219670648,35.407000350952146,49.53724060058594,4.810744762420654,79.52286529541016,0.0
190,3.010498410463333,-0.042814200092107,35.402251148223876,49.73137989044189,4.810744762420654,79.52286529541016,0.0
191,3.0039750695228578,-0.033974665310233784,35.400001525878906,49.75091581344604,4.810744762420654,79.52286529541016,0.0
192,2.9991683542728422,-0.024070817977189983,35.400001525878906,49.39743604660034,4.810744762420654,79.52286529541016,0.0
193,2.991080957651138,-0.019329750770702918,35.400001525878906,49.87606792449951,4.810744762420654,79.52286529541016,0.0
194,2.9858927726745605,-0.015170655888505236,35.40300102233887,49.65018291473389,4.810744762420654,79.52286529541016,0.0
195,2.981658375263214,-0.013312073517590717,35.40275106430054,49.650793647766115,4.810744762420654,79.52286529541016,0.0
196,2.9750968992710116,-0.01426013165619219,35.404750728607176,49.63125734329223,4.810744762420654,79.52286529541016,0.0
197,2.971968650817871,-0.01157823291141535,35.40999984741211,50.015872955322266,4.810744762420654,79.52286529541016,0.0
198,2.9728842675685883,-0.00623120948439459,35.40999984741211,49.46214904785156,3.7851037979125977,76.64102783203126,0.0
199,2.9675817012786867,-0.008211174432653885,35.40999984741211,49.611111068725585,3.1013431549072266,74.71980285644531,0.0
200,2.9530854344367983,-0.01794560933485622,35.41724863052368,49.9004885673523,3.1013431549072266,74.71980285644531,0.0
201,2.9417172968387604,-0.02300096778199072,35.424499130249025,49.41208791732788,3.1013431549072266,74.71980285644531,0.0
202,2.938016891479492,-0.01995880501344795,35.43000030517578,49.78754596710205,3.1013431549072266,74.71980285644531,0.0
203,2.9343928754329682,-0.016284396778792086,35.43000030517578,50.090964794158936,3.1013431549072266,74.71980285644531,0.0
204,2.9286324977874756,-0.014185408176854203,35.43025026321411,49.32295475006104,3.1013431549072266,74.71980285644531,0.0
205,2.9239020586013793,-0.012074460345320358,35.439998626708984,49.36874217987061,3.1013431549072266,74.71980285644531,0.0
206,2.9158147037029267,-0.01495348182506854,35.439998626708984,49.84676446914673,3.1013431549072266,74.71980285644531,0.0
207,2.906582832336426,-0.01832906689960505,35.439998626708984,49.741147708892825,3.1013431549072266,74.71980285644531,0.0
208,2.9041413247585295,-0.014665968366898555,35.439998626708984,49.73137989044189,3.238095283508301,74.11803283691407,0.0
209,2.8957487463951113,-0.016741589969024,35.439998626708984,49.20451784133911,3.443223476409912,73.21537780761719,0.0
210,2.892010259628296,-0.013974201143719217,35.44650001525879,49.80830297470093,3.443223476409912,73.21537780761719,0.0
211,2.8825495302677155,-0.016925966972485128,35.45000076293945,49.49877901077271,3.443223476409912,73.21537780761719,0.0
212,2.8710287749767303,-0.021645843796431953,35.45474996566772,49.769230651855466,3.443223476409912,73.21537780761719,0.0
213,2.8649251043796538,-0.020052181929349832,35.459999084472656,50.00061082839966,3.443223476409912,73.21537780761719,0.0
214,2.8627887666225433,-0.01494041301775718,35.459999084472656,49.384615135192874,3.443223476409912,73.21537780761719,0.0
215,2.858363628387451,-0.01275522587820882,35.46975116729736,49.78449354171753,4.1318682670593265,72.79068298339844,0.0
216,2.8518784046173096,-0.012784528732299755,35.470001220703125,49.853480052948,4.590964794158936,72.50755310058594,0.0
217,2.8421124696731566,-0.016642224160022964,35.47150096893311,50.23504276275635,4.590964794158936,72.50755310058594,0.0
218,2.8353221356868743,-0.01767291030846529,35.47999954223633,49.442002296447754,4.590964794158936,72.50755310058594,0.0
219,2.8336817562580108,-0.01316327104577789,35.48225002288818,48.86263742446899,4.590964794158936,72.50755310058594,0.0
220,2.865878772735596,0.021881507559737622,35.4900016784668,49.05311365127564,4.590964794158936,72.50755310058594,0.0
221,2.936033195257187,0.08296639593318103,35.4900016784668,49.65018291473389,4.590964794158936,72.50755310058594,0.0
222,3.0035172581672667,0.12520588394254442,35.4900016784668,50.335775184631345,4.590964794158936,72.50755310058594,0.0
223,3.0355998396873476,0.11994857396930451,35.49775037765503,50.06593418121338,4.590964794158936,72.50755310058594,0.0
224,3.035294657945633,0.07879597600549455,35.5,49.939560413360596,4.590964794158936,72.50755310058594,0.0
225,3.024002820253372,0.030751528125256243,35.508998489379884,49.08608074188233,4.590964794158936,72.50755310058594,0.0
226,3.011909860372543,-0.004668305311815836,35.5099983215332,49.581807136535645,4.590964794158936,72.50755310058594,0.0
227,3.0037461638450624,-0.0194256152026355,35.51699981689453,50.44810781478882,4.590964794158936,72.50755310058594,0.0
228,2.996688741445541,-0.021771523309871525,35.52000045776367,49.273504161834715,4.590964794158936,72.50755310058594,0.0
229,2.9853205919265746,-0.023855062993243296,35.52000045776367,49.17826623916626,4.590964794158936,72.50755310058594,0.0
230,2.975707292556763,-0.023349605407565796,35.52000045776367,49.74358978271484,4.590964794158936,72.50755310058594,0.0
231,2.981963539123535,-0.009257062216056459,35.52000045776367,50.06776552200317,4.590964794158936,72.50755310058594,0.0
232,2.9802087545394897,-0.006216590746771505,35.52000045776367,50.37301588058472,4.590964794158936,72.50755310058594,0.0
233,2.9673909664154055,-0.013529952312819605,35.515749549865724,48.63186817169189,4.590964794158936,72.50755310058594,0.0
234,2.9567476511001587,-0.018326971726491996,35.5099983215332,49.4682541847229,4.590964794158936,72.50755310058594,0.0
235,2.9476683855056764,-0.021957759559154463,35.5099983215332,49.80341901779175,4.590964794158936,72.50755310058594,0.0
236,2.9403058111667635,-0.022327085677534296,35.504249286651614,49.87484731674194,4.590964794158936,72.50755310058594,0.0
237,2.930578035116196,-0.022619117144495198,35.5,50.219780349731444,4.590964794158936,72.50755310058594,0.0
238,2.922910237312317,-0.020884412899613326,35.49925012588501,49.09951171875,4.590964794158936,72.50755310058594,0.0
239,2.9222235679626465,-0.013557674828916743,35.4900016784668,49.73565330505371,4.590964794158936,72.50755310058594,0.0
