sec,SCL,SCR,TEMP,BVP,PVA,HR,MOTION
0,1.437421798706055,0.0010000000474974,33.190249347686766,49.519535541534424,0.0,30.0,0.018679334037005883
1,1.4381465911865237,0.06521017338382076,33.20000076293945,50.57264957427979,0.0,30.0,0.02155307773500679
2,1.43787956237793,0.07721154300961638,33.20000076293945,50.47374830245972,0.0,30.0,0.03592179641127583
3,1.4349421709775925,-0.002238448036587188,33.20000076293945,45.62881577014923,0.0,30.0,0.12159527763724325
4,1.4354762494564057,-0.001609547072439425,33.20000076293945,52.995116233825684,0.0,30.0,0.296175199560821
5,1.4383754789829255,0.001538727669685545,33.20000076293945,50.77777795791626,0.0,30.0,0.0
6,1.4416562646627427,0.004388089245185205,33.1977502822876,48.99084281921387,13.604395866394043,30.0,0.02155307754874227
7,1.4464247465133666,0.007938592764548905,33.189998626708984,52.445054817199704,8.984127426147461,61.95196380615234,0.016164808720350258
8,1.4495910406112669,0.008710891858208886,33.1834997177124,46.83577537536621,8.30280876159668,65.50218200683594,0.0707659384235739
9,1.450926214456558,0.0070079317782073824,33.18000030517578,50.41880359649658,10.510378646850587,63.54373321533203,0.0014368718490004526
10,1.4629429042339326,0.015247526345774498,33.18000030517578,48.48595819473267,13.821733474731442,60.60606002807617,0.0
11,1.4827417850494384,0.028473320463672246,33.18000030517578,50.49572620391846,19.250304794311525,58.64093551635742,0.0
12,1.4963988184928894,0.03277108496986326,33.17099838256836,49.87179498672485,11.562881588935852,57.51803159713745,0.0
13,1.4972762137651443,0.023742983164265718,33.16999816894531,51.522588634490965,5.724664402008057,56.98472146987915,0.0
14,1.496398824453354,0.013446742971427695,33.18000030517578,46.409646320343015,4.737484931945801,56.89900588989258,0.0
15,1.4957884550094604,0.004845854220911808,33.18000030517578,51.191697120666504,4.737484931945801,56.89900588989258,0.0
16,1.498878464102745,0.003162768750917115,33.18000030517578,50.08913278579712,4.737484931945801,56.89900588989258,0.0
17,1.501548770070076,0.0039515207172370875,33.18000030517578,49.78449354171753,5.038461542129516,56.89900588989258,0.0
18,1.5020828694105148,0.0036033350741490376,33.17374897003174,49.33943862915039,5.317460238933563,56.88012962341308,0.0
19,1.499603271484375,0.000308481851243415,33.18000030517578,50.14529914855957,5.213675141334534,56.721068382263184,0.0
20,1.4971236139535904,-0.00261767690826668,33.17674961090088,50.09584846496582,5.714285612106323,56.69742393493652,0.0
21,1.496932864189148,-0.0027900797897017974,33.17524929046631,49.830280780792236,6.080585956573486,56.737586975097656,0.0
22,1.496932864189148,-0.0020621992327505227,33.16999816894531,49.60683746337891,6.64285717010498,56.269336986541745,0.007184359245002263
23,1.496932864189148,-0.0010364089743233724,33.16999816894531,48.76129465103149,6.642857027053833,57.49056806564331,0.0
24,1.498344397544861,0.0010828415703144525,33.16999816894531,49.36141662597656,6.300366401672363,57.58572196960449,0.0
25,1.4997177124023438,0.0022054763074265274,33.16999816894531,50.24969472885132,6.2576313495635985,57.627229881286624,0.0
26,1.4978484630584716,-4.3971216655362545e-05,33.16999816894531,50.03479871749878,5.44566535949707,57.44375228881836,0.0
27,1.4949873358011245,-0.0027924740512389177,33.16999816894531,49.84737462997437,5.3742370247840885,56.108992671966554,0.0
28,1.4927747249603271,-0.004390736983623302,33.16724863052368,49.12576303482056,5.705738842487335,56.64266138076782,0.0
29,1.4911344051361084,-0.004924612981267223,33.15999984741211,49.79609279632568,5.94017106294632,56.53046016693115,0.0
30,1.4890743881464004,-0.005176463432144327,33.15999984741211,49.60989027023315,5.772893905639648,58.24670352935791,0.0
31,1.4867091536521913,-0.005281217308947763,33.16149959564209,49.67338237762451,4.810745000839233,59.2647572517395,0.0
32,1.4871288031339644,-0.002997634094208422,33.16999816894531,49.789988136291505,4.252747249603272,59.74914531707765,0.0
33,1.484076976776123,-0.00441041219746689,33.16999816894531,49.5305251121521,4.367521345615387,59.64511728286742,0.0
34,1.480491045117378,-0.0060572060989215505,33.16374921798706,49.93772897720337,4.481074666976928,58.75013961791992,0.0
35,1.4778588414192197,-0.006444006320089045,33.15999984741211,49.45848588943481,4.970695948600769,58.04922428131105,0.0
36,1.4762184619903564,-0.005978309491183562,33.15999984741211,49.670940208435056,5.05494499206543,56.678664207458496,0.0
37,1.4758751392364502,-0.00405988013080781,33.15999984741211,50.17094011306763,5.816849708557129,55.84254455566406,0.0
38,1.477401041984558,-0.000778308363078365,33.15999984741211,49.76434669494629,6.366910862922668,55.309744358062744,0.0
39,1.4772102922201156,9.684193379669754e-06,33.15999984741211,50.0225887298584,6.108058607578277,54.955856513977054,0.0
40,1.4770958483219148,0.000268354015497565,33.15999984741211,49.827838611602786,6.108058571815491,54.66987466812134,0.0
41,1.4755699634552002,-0.0011083943711127525,33.15999984741211,49.65689859390259,6.8253968238830565,54.515757369995114,0.0
42,1.4821695566177369,0.005103189628425713,33.15175123214722,49.54456634521485,7.346153700351715,54.435354232788086,0.0
43,1.502884003520012,0.022788222064264077,33.150001525878906,49.57264995574951,7.662393128871917,54.66354103088379,0.0
44,1.5230643510818482,0.03558949194848535,33.150001525878906,49.66483497619629,7.648961985111237,55.865644454956055,0.0
45,1.5311136186122893,0.03339411737397307,33.150751399993894,49.5164831161499,7.6678876876831055,56.94315242767334,0.0
46,1.5279091805219651,0.019417155859991868,33.15275106430054,49.203296756744386,7.6678876876831055,57.498802185058594,0.0
47,1.5249717682600021,0.00679695198778058,33.150001525878906,49.550671863555905,6.691697037220001,56.1359281539917,0.0
48,1.5242469310760498,-0.0003560134325198185,33.150001525878906,50.1306471824646,6.465201318264008,54.23220710754394,0.0
49,1.5243232637643813,-0.002234622268588225,33.150001525878906,50.04090356826782,6.510989034175873,53.06341896057129,0.0
50,1.5286721289157867,0.002485903415072185,33.150001525878906,49.89560451507568,6.168498277664185,52.479830741882324,0.0
51,1.534585100412369,0.008065724605694363,33.150001525878906,49.820512771606445,5.7326007843017575,52.14868450164795,0.0
52,1.539201021194458,0.010449865856207854,33.150001525878906,49.923687267303464,5.435897350311279,51.842106628417966,0.0
53,1.5395062178373338,0.0076807797595392375,33.150001525878906,50.14468870162964,5.261294186115265,51.1736400604248,0.0
54,1.53511917591095,0.0006201800841836122,33.150001525878906,49.6227108001709,5.5433454513549805,51.13208770751953,0.0
55,1.5326777011156083,-0.003253804359701418,33.146750831604,49.317460250854495,5.570207476615906,53.60628833770752,0.0
56,1.530961036682129,-0.005012793780770105,33.13999938964844,49.13369979858398,6.617826461791992,54.91990661621094,0.0
57,1.5287484139204026,-0.0056746512767858245,33.14325008392334,48.73321161270142,7.236874043941498,55.64015855789184,0.0
58,1.5318384528160096,-0.0006258561425056187,33.13999938964844,49.659951305389406,7.164834976196289,55.24387550354004,0.0
59,1.5367213904857637,0.004837642103666395,33.13999938964844,49.98107461929321,7.155066967010498,55.34489183425903,0.0
60,1.5401928842067718,0.007282255601603488,33.13999938964844,49.62698411941528,6.304029369354248,55.46313953399658,0.0
61,1.5428632587194442,0.008052002696786024,33.133500480651854,50.469474983215335,6.335164737701416,56.56155204772949,0.0
62,1.5456099390983582,0.007745108741801175,33.130001068115234,50.04822950363159,6.638583481311798,58.82777786254883,0.0
63,1.5425962209701538,0.0019030650502827296,33.130001068115234,49.297923946380614,6.49084243774414,65.1855682373047,0.0
64,1.540040299296379,-0.00206592948670727,33.130001068115234,48.95543355941773,7.424908328056335,69.48150482177735,0.0
65,1.5392773151397705,-0.0028992130712139725,33.130001068115234,49.9249080657959,9.417582368850708,70.59971027374267,0.0
66,1.541146606206894,-0.00079177590378092,33.130001068115234,50.20573873519898,10.476190567016602,70.54673767089844,0.0
67,1.5449232488870621,0.0033256464812438545,33.130001068115234,50.27777786254883,10.506715536117554,69.10068397521972,0.0
68,1.543092131614685,0.00143494718067812,33.130001068115234,49.997558212280275,10.549450397491455,64.3982801437378,0.0
69,1.539353609085083,-0.002217472184565792,33.130001068115234,48.83577527999878,10.20757007598877,58.16771697998047,0.0
70,1.5401928842067718,-0.0014681148866656426,33.130001068115234,49.22161178588867,10.421855545043945,54.85446729660034,0.0
71,1.5390865832567215,-0.002528276162047365,33.12074909210205,50.08974361419678,10.427350044250488,53.37052001953125,0.0
72,1.5364924818277361,-0.004051355930278033,33.119998931884766,49.67948732376099,10.346763968467712,53.6873592376709,0.0
73,1.5350810289382937,-0.0036724442499689253,33.119998931884766,49.76739921569824,10.073260068893433,54.15244960784912,0.0
74,1.53511917591095,-0.00249352114042264,33.115249729156496,49.71794862747193,9.75763156414032,54.61933031082153,0.0
75,1.5314188063144685,-0.004998800542671183,33.11000061035156,49.474359130859376,8.884615612030029,56.89906005859375,0.0
76,1.5283669233322144,-0.005980392859782978,33.11000061035156,50.487789916992185,8.717948913574219,59.553257369995116,0.0
77,1.5276039838790894,-0.004786392621463115,33.1097505569458,49.719780158996585,8.610500907897949,62.63670959472656,0.0
78,1.5242469549179076,-0.006201195716857857,33.099998474121094,49.2155065536499,8.30769214630127,66.05289611816406,0.0
79,1.5226065903902053,-0.005436121125239825,33.099998474121094,49.05982894897461,8.674603271484376,68.76040325164794,0.0
80,1.5234839916229248,-0.0024019627366214475,33.099998474121094,49.64590969085693,9.470085334777831,69.93234558105469,0.0
81,1.5243995189666748,-0.00041977337259590717,33.099998474121094,49.76129417419433,10.428571510314942,67.1201560974121,0.0
82,1.5244758188724519,0.0004194659871472583,33.099998474121094,49.64163618087768,10.808913493156433,63.67143564224243,0.0
83,1.5259255170822144,0.0019834234582958225,33.099998474121094,50.22893772125244,11.06471290588379,60.33198547363281,0.0
84,1.5250862181186675,0.000628595413127187,33.098998641967775,49.89438323974609,11.526251316070557,57.648721313476564,0.0
85,1.5247428685426712,-7.279074852702e-05,33.09000015258789,49.35347957611084,12.109890556335449,55.94501571655273,0.0
86,1.5236365795135498,-0.001247199380304625,33.09849872589111,49.55067148208618,11.428571701049805,53.59535598754883,0.0
87,1.5221487909555436,-0.002387487184023435,33.099998474121094,49.08608055114746,10.525030136108398,52.37887573242189,0.0
88,1.520851731300354,-0.002983550803037302,33.090500068664554,49.70268630981445,10.615384221076965,52.59128303527832,0.0
89,1.5180669605731965,-0.004508381552295703,33.09000015258789,49.45177068710327,11.040292835235594,53.56138725280762,0.0
90,1.5162358283996582,-0.004825442167930255,33.09000015258789,49.95787525177002,10.164835238456725,55.11617317199707,0.0
91,1.5132603228092194,-0.005888876167591607,33.09000015258789,50.25824165344238,9.24236855506897,58.80888290405274,0.0
92,1.5121921300888062,-0.0049200205481610675,33.08400115966797,49.68986520767212,8.951160287857057,63.55514297485352,0.0
93,1.5131458789110184,-0.002123046357883085,33.08975019454956,49.44627599716186,8.778998970985413,67.40171165466309,0.0
94,1.5151677131652832,0.0009258497346308575,33.08275136947632,49.412698364257814,9.48840036392212,69.26582927703858,0.0
95,1.5135655224323272,-0.0001549990416492561,33.08000183105469,49.36996364593506,10.725885200500489,67.2681806564331,0.0
96,1.511696219444275,-0.001583795322221665,33.082001495361325,49.948717975616454,12.01404185295105,62.9102705001831,0.0
97,1.509063994884491,-0.003834731807000887,33.09000015258789,50.06593399047851,12.783883213996887,59.57048416137695,0.0
98,1.5076143741607666,-0.004378271114546758,33.09000015258789,49.91147747039795,12.426740288734436,57.971381187438965,0.0
99,1.5079576969146729,-0.0027310484845656426,33.09699897766113,49.744200229644775,10.832723045349123,57.53528270721436,0.0
100,1.5078814029693604,-0.001466567190982418,33.099998474121094,49.633699321746825,9.658119678497314,58.828983306884766,0.0
101,1.5063936710357666,-0.0018574828201962702,33.099998474121094,49.49450531005859,10.227106094360352,61.05833511352539,0.0
102,1.5049440026283265,-0.0023656476027098974,33.099998474121094,49.59829053878784,10.69597053527832,62.40077047348022,0.0
103,1.5022736191749573,-0.004169549822108783,33.099998474121094,49.692307758331296,10.794261264801026,61.56766405105591,0.0
104,1.5015106201171875,-0.0037142072687856376,33.099998474121094,49.32295484542847,10.937118363380431,60.04778890609741,0.0
105,1.500823974609375,-0.0030973161978180923,33.107500076293945,50.05921821594238,10.98901081085205,59.10773572921753,0.0
106,1.4993362426757812,-0.003180694597540375,33.1120002746582,49.915750885009764,11.093406295776367,58.39728956222534,0.0
107,1.4984970092773438,-0.002587963282712685,33.119998931884766,49.5683762550354,10.698412561416625,58.044135665893556,0.0
108,1.4988784790039062,-0.00122175670112479,33.119998931884766,49.61111097335815,10.265568017959595,58.65625524520874,0.0
109,1.4964369535446167,-0.0028707333898637076,33.12650032043457,49.1770453453064,10.327228665351866,60.74943132400513,0.0
110,1.4944913864135743,-0.00363828567788,33.13100090026855,49.34981679916382,10.391941356658936,62.324043273925795,0.0
111,1.493041753768921,-0.0037622202245983795,33.13999938964844,49.473748779296876,10.765567994117736,62.89585418701172,0.0
112,1.4951017856597901,-0.0007944720156955974,33.14800109863281,49.484127044677734,11.568986225128175,62.21158084869385,0.0
113,1.4939573049545287,-0.0011563948150068815,33.15550060272217,50.181929206848146,11.547619223594667,61.49588489532471,0.0
114,1.4915540218353271,-0.0025411537746549097,33.1632493019104,50.367521381378175,11.117826247215271,61.45368318557739,0.0
115,1.4895702809095384,-0.0035634093568659903,33.170498275756835,49.94932870864868,9.91147756576538,63.20504856109619,0.0
116,1.4893032312393188,-0.003006484382785813,33.18000030517578,49.39255170822143,10.24664249420166,63.98636093139648,0.0
117,1.4903714299201964,-0.0010821586613018901,33.18000030517578,49.49999990463257,10.982905864715576,63.85553455352783,0.0
118,1.4887310236692428,-0.0016907801240449252,33.185249423980714,49.530524826049806,10.890720391273499,63.50694255828857,0.0
119,1.4863276541233064,-0.003035117042600112,33.19599990844726,49.57509136199951,10.661782503128052,63.214471435546876,0.0
120,1.4865184038877488,-0.0019829723045403924,33.20075063705444,49.39987745285034,10.499389457702637,63.39347095489502,0.0
121,1.487166953086853,-0.0008341528076925462,33.209999084472656,49.52441987991333,10.519536232948303,63.630168437957764,0.0
122,1.4873577028512954,-0.00012024456445945751,33.214750099182126,49.42551898956299,11.233211517333983,63.73488006591797,0.0
123,1.4877773523330688,0.00069486186694115,33.22550029754639,49.609279823303225,11.574481177330016,63.784836006164554,0.0
124,1.487472152709961,0.0002990177628816775,33.23275012969971,49.59584856033325,11.249694967269898,63.820455932617186,0.0
125,1.4859461784362793,-0.00128817333461478,33.24025163650513,49.302197742462155,10.92796082496643,63.82978820800781,0.0
126,1.4844584465026855,-0.002461283552111075,33.25,49.78693513870239,11.506715297698975,63.82978820800781,0.0
127,1.4847254753112793,-0.0016472998133394375,33.257748699188234,50.06043968200684,12.874236583709717,63.57284564971923,0.0
128,1.4846110343933105,-0.0011828150061773675,33.2685001373291,50.0305251121521,12.936507654190063,63.13335094451905,0.0
129,1.481940647959709,-0.002926230008597435,33.27599945068359,49.7301589012146,12.637362861633301,62.212578773498535,0.0
130,1.4828943967819215,-0.0010867447985219302,33.28650016784668,49.93956031799316,12.049450969696043,62.56322832107544,0.0
131,1.484229564666748,0.0005837531316501225,33.29699974060058,49.64468870162964,11.819291877746583,63.738015747070314,0.0
132,1.484839916229248,0.001146875077392885,33.3075008392334,49.34920654296875,11.8046395778656,65.50504417419434,0.0
133,1.483924388885498,0.0003454253717791425,33.318249988555905,49.30402898788452,12.731379675865174,65.57159805297852,0.0
134,1.4847254753112793,0.000882934383116615,33.32525081634522,49.38522596359253,13.90964584350586,63.99516143798828,0.0
135,1.484534740447998,0.0001901127012387975,33.33950023651123,49.65995140075684,14.493284273147584,61.325638389587404,0.0
136,1.4831995964050293,-0.0011859031044877475,33.350498580932616,49.57264957427979,14.493284583091736,58.56894178390503,0.0
137,1.484687328338623,0.00047167368247753004,33.36000061035156,49.60378494262695,13.586080598831177,57.46855411529541,0.0
138,1.4847636222839355,0.00045205524802435,33.367749309539796,49.366910743713376,12.063491821289062,57.37372817993164,0.0
139,1.4869380563497543,0.002342748497176165,33.38075037002564,49.53601942062378,11.727716636657714,57.3264401435852,0.0
140,1.4873577028512954,0.0022563118356628774,33.39274997711182,49.76923084259033,10.52014684677124,57.58645696640015,0.0
141,1.487548440694809,0.0016768441351927784,33.40675039291382,49.82783889770508,9.426129817962646,58.694148254394534,0.0
142,1.4866710036993027,0.0001737967841109139,33.423498916625974,49.96398029327393,9.084249305725098,59.98444366455078,0.0
143,1.4862513542175293,-0.000567377180413995,33.43449954986572,49.776556968688965,9.61172151565552,60.97010898590088,0.0
144,1.4853739738464355,-0.0014458474601269,33.44199905395508,49.508547115325925,9.70451774597168,62.25821304321289,0.0
145,1.4862513542175293,-0.000272737228442515,33.452750301361085,49.76739892959595,9.821733951568604,63.06112766265869,0.0
146,1.4856410026550293,-0.0005401293451995803,33.46024913787842,48.91086692810059,11.842491006851194,63.2794605255127,0.0
147,1.4859461784362793,-1.7697474686452512e-05,33.47025117874146,49.788156509399414,12.814408159255981,62.029198837280276,0.0
148,1.484229564666748,-0.001491442174301435,33.48400039672852,49.75030517578125,12.619047760963442,60.61897373199463,0.0
149,1.4818261981010434,-0.00329862606013189,33.49475088119507,49.82783832550049,11.780219650268554,59.41831512451172,0.0
150,1.480834364891052,-0.0034192550752777198,33.50574903488159,49.97313766479492,11.81562886238098,58.5494873046875,0.0
151,1.481444716453552,-0.0018029133352683298,33.519250297546385,49.55738716125488,12.356532287597656,58.1230354309082,0.0
152,1.4814828634262083,-0.00089665026607685,33.52999887466431,49.73992681503296,11.914529991149902,58.72330741882324,0.0
153,1.4792703390121458,-0.0021812949795275375,33.540000915527344,49.45604372024536,12.068986964225768,59.691004276275635,0.0
154,1.4761803150177002,-0.0042389892507344075,33.54799957275391,50.346153831481935,12.242979311943055,61.27955141067505,0.0
155,1.4749595642089843,-0.004253387445351065,33.558250999450685,49.94566535949707,11.615384173393249,64.75090494155884,0.0
156,1.4740439653396606,-0.00388379663927476,33.56874990463257,49.56166048049927,11.498778748512269,67.66151485443115,0.0
157,1.4741965651512146,-0.002215308797894925,33.579501724243165,49.382173252105716,11.852258944511414,68.42680511474609,0.0
158,1.4738913774490356,-0.0012480224846512524,33.5867506980896,49.318070602416995,13.450549125671387,66.69068908691406,0.0
159,1.4743491798639297,-2.3102618069937492e-05,33.594249439239505,49.79426126480102,13.919413566589355,64.28916645050049,0.0
160,1.4761040210723877,0.0017070338770281076,33.601748847961424,49.36446876525879,13.606227111816406,62.35275602340698,0.0
161,1.4748832643032075,0.00022942084178794998,33.61000061035156,49.74786348342896,12.978022146224976,62.0444899559021,0.0
162,1.4741965651512146,-0.00050814093265211,33.61899909973145,49.56532354354859,12.975580191612243,62.57276096343994,0.0
163,1.4737006425857544,-0.00099043957161477,33.62975101470947,49.55006122589111,13.114774370193478,62.96593723297119,0.0
164,1.4725180864334106,-0.001998427932267025,33.63999938964844,49.803418922424314,12.89377269744873,63.37845687866211,0.0
165,1.4725180864334106,-0.001394252540194375,33.64750099182129,49.9841272354126,12.55921850204468,64.8824333190918,0.0
166,1.4713736772537231,-0.0018175022938521051,33.658250141143796,49.4316237449646,12.241758227348328,65.84116077423096,0.0
167,1.4709922075271606,-0.00153848443296733,33.66874837875366,50.60622692108154,13.467033123970031,64.83128261566162,0.0
168,1.4699621587991714,-0.0018332048523006426,33.67950019836426,50.19658136367798,13.794872093200684,64.30707244873047,0.0
169,1.469466209411621,-0.0016911915328818802,33.6834997177124,49.772283267974856,13.504273414611816,64.20595359802246,0.0
170,1.469847708940506,-0.00071805062325436,33.69099884033203,49.24664220809937,13.960927844047546,64.57354679107667,0.0
171,1.4695806592702865,-0.0005231586241279325,33.70175046920777,49.34737462997437,15.278998517990113,64.15794448852539,0.0
172,1.4690465927124023,-0.0007458732223312325,33.71224956512451,49.81746015548706,15.531135177612304,62.27657470703125,0.0
173,1.467940330505371,-0.0014357884676428,33.720001220703125,49.63369979858398,14.402319645881652,62.327721405029294,0.0
174,1.468855857849121,-0.0002127238723915425,33.72650012969971,48.94932851791382,13.544566345214843,63.3931921005249,0.0
175,1.4709158837795258,0.0017929880443261273,33.73400039672852,49.6623929977417,13.644688844680786,63.56788873672485,0.0
176,1.4733573198318481,0.0037381501344497746,33.744500923156735,49.057997131347655,13.55311393737793,63.41156539916993,0.0
177,1.4727851152420044,0.002386839047539925,33.75224962234497,50.0543345451355,12.570207595825195,65.1460916519165,0.0
178,1.4721747636795044,0.0009710414042273932,33.762748908996585,50.2515266418457,13.065934228897092,66.20687255859374,0.0
179,1.4716025590896606,-0.0003788164678553475,33.77324991226196,50.05067176818848,12.758241748809812,64.95157661437989,0.0
180,1.4706488579511643,-0.0015773848106618248,33.78074893951416,49.86446886062622,12.05372428894043,64.43904762268066,0.0
181,1.4700384587049484,-0.001759993044834065,33.79450016021728,49.72344312667847,10.919414138793945,64.60753326416015,0.0
182,1.4706870079040528,-0.0005056335819062527,33.805250358581546,49.76373653411865,11.062271118164062,64.97022247314453,0.0
183,1.4712592363357544,0.0003181832189873878,33.812250995635985,48.83821754455566,11.619047355651855,65.13980102539062,0.0
184,1.469924008846283,-0.000744747546559645,33.81999969482422,49.22222194671631,11.99023151397705,65.15725688934326,0.0
185,1.469161033630371,-0.001193282715394115,33.83000183105469,49.302808094024655,12.986568641662597,65.28136444091797,0.0
186,1.4682836532592773,-0.0017845607901108076,33.83725061416626,49.969474983215335,13.567765808105468,65.17761363983155,0.0
187,1.467940330505371,-0.0016526812571100373,33.847998809814456,50.616605567932126,13.800366044044491,65.0538911819458,0.0
188,1.467940330505371,-0.0010247094309306225,33.85850028991699,50.12026882171631,13.695970821380616,64.18178224563599,0.0
189,1.467940330505371,-0.00046794528170717,33.863000106811526,49.30647134780884,14.401709508895873,63.70457630157472,0.0
190,1.4677877306938172,-0.00030719495680382795,33.87349967956543,50.456654167175294,15.268620491027832,63.22870397567749,0.0
191,1.4664143323898315,-0.00134871459740675,33.88425035476685,49.65934066772461,15.296703147888184,63.15902252197266,0.0
192,1.4671391814947128,-0.00036301286527306496,33.88999938964844,49.47435903549194,14.139194250106812,63.86323223114014,0.0
193,1.4674825310707091,0.00010277032415615498,33.895500564575194,48.948107433319095,14.84737491607666,64.5451904296875,0.0
194,1.4694662362337112,0.002009091633954042,33.90275106430054,48.464590835571286,14.885836577415466,65.38918762207031,0.0
195,1.4728232622146606,0.0046643949579447,33.9132493019104,48.59096460342407,13.14041554927826,66.08356647491455,0.0
196,1.4717551469802856,0.0024989184894365774,33.9239990234375,49.55006113052368,12.095238399505615,66.37917785644531,0.0
197,1.469504365324974,-0.0005120778347190524,33.937499046325684,50.889499759674074,10.695971012115479,64.24871368408203,0.0
198,1.467940330505371,-0.0023329689749516276,33.94825038909912,50.12087926864624,9.209401559829711,62.03292055130005,0.0
199,1.468092918395996,-0.0021277018924592502,33.952500343322754,49.91147727966309,8.432234168052673,61.13784513473511,0.0
200,1.4659947395324706,-0.00338682902511205,33.96324977874756,49.57692337036133,10.748473548889162,61.96977710723877,0.0
201,1.4648884534835815,-0.0030141024326439426,33.973750591278076,50.77472524642944,11.448107242584229,61.72970247268678,0.0
202,1.4648503065109253,-0.0019321816274895875,33.984250450134276,49.67277164459229,10.982905912399293,63.24744997024536,0.0
203,1.4633625745773315,-0.0025205532670951923,33.99175138473511,49.41452989578247,9.407814550399781,66.5859561920166,0.0
204,1.463324424624443,-0.0016148381255333601,34.00224962234497,49.46886472702026,10.293040275573732,68.44061660766602,0.0
205,1.461836576461792,-0.00215664136339906,34.0099983215332,49.09523811340332,11.273504400253296,68.90439147949219,0.0
206,1.4608066082000732,-0.00246236210223282,34.01649971008301,49.251525688171384,11.369963407516478,69.4858341217041,0.0
207,1.4600054979324342,-0.0023163375357398075,34.023999786376955,49.63492069244385,11.216116809844971,69.07291069030762,0.0
208,1.4611117839813232,-0.00048634892445988755,34.034749794006345,49.991453075408934,12.391941118240357,66.47048568725586,0.0
209,1.4612643718719482,5.5338090169230004e-05,34.040000915527344,50.79609260559082,12.611721324920655,63.428828144073485,0.0
210,1.460081797838211,-0.00075920848248638,34.040000915527344,49.946276092529295,11.912087440490723,62.09193515777588,0.0
211,1.4598910480737686,-0.000622802540965465,34.04974937438965,49.60378475189209,11.40659303665161,62.43179321289064,0.0
212,1.4585176825523376,-0.00184921139734792,34.060001373291016,49.51892566680908,12.647130608558657,62.4345594406128,0.0
213,1.4572588205337524,-0.002546949614770665,34.06775007247925,49.57203903198242,13.172771549224853,61.55882549285889,0.0
214,1.457029938697815,-0.00193768795870706,34.06999969482422,49.305860710144046,12.841880130767823,61.45008382797241,0.0
215,1.4554277420043946,-0.0026412509789224053,34.07225017547607,49.93162393569946,12.34737491607666,62.128443241119385,0.0
216,1.4553514420986176,-0.0017874913464765428,34.083251285552976,49.42124519348145,12.747253036499023,62.241065979003906,0.0
217,1.4557329416275024,-0.0006546781187352675,34.09000015258789,49.50183134078979,13.611721801757813,61.9835693359375,0.0
218,1.4557329416275024,-0.0002692120404389625,34.09099998474121,49.28693552017212,13.886446666717529,61.85887451171875,0.0
219,1.455160692334175,-0.000515940499301754,34.099998474121094,49.775335502624515,13.971916723251343,61.19342460632324,0.0
220,1.454206943511963,-0.001133995951386125,34.10199890136719,50.36141633987427,13.980463862419128,60.146260833740236,0.0
221,1.4543213933706283,-0.000827902984747155,34.11000061035156,49.84126968383789,14.329670333862305,58.954703140258786,0.0
222,1.454206943511963,-0.0006658781130681325,34.119748973846434,49.813797092437746,14.338217544555661,56.77539596557617,0.0
223,1.4545884430408478,1.0079706407882521e-05,34.12074909210205,49.803418445587155,13.875457763671875,56.09924020767212,0.0
224,1.455389592051506,0.0009231265190464599,34.130001068115234,49.15811948776245,13.308913230895996,56.792767238616946,0.0
225,1.4557710826396941,0.0010673792552551675,34.13525018692017,49.29059829711914,13.191697120666504,57.611742401123045,0.0
226,1.454206943511963,-0.0006375403550919075,34.13999938964844,49.06410255432129,12.602564001083374,58.313200092315675,0.0
227,1.4542450934648514,-0.00058921786694552,34.14625072479248,49.71733779907227,11.04517686367035,58.68562641143799,0.0
228,1.4535584449768066,-0.00122990835370722,34.15375089645386,49.805249977111814,9.146520209312438,58.884191036224365,0.0
229,1.452681064605713,-0.0016831307177198474,34.15999984741211,50.40842504501343,9.181929588317873,58.98691282272339,0.0
230,1.4523377150297165,-0.001421759955701365,34.15999984741211,49.90476179122925,9.285104107856752,59.22629480361938,0.0
231,1.4511550664901731,-0.001931205246364655,34.16849842071533,49.741758251190184,10.237484765052795,59.73896865844726,0.0
232,1.4505447149276731,-0.0019063188898143873,34.17599945068359,49.338827991485594,12.180707931518555,59.877404403686526,0.0
233,1.4490188360214231,-0.0025760707329026875,34.180500221252444,50.410256671905515,13.299145126342774,59.70226373672485,0.0
234,1.4495528936386106,-0.0012654497564653351,34.189998626708984,49.96153812408447,13.64163634777069,59.32003326416016,0.0
235,1.4492477178573606,-0.0009582758008036251,34.194749641418454,49.33150157928467,14.023199319839478,58.53020000457764,0.0
236,1.4481033086776731,-0.001493423324427525,34.20000076293945,49.10866909027099,15.500610399246217,58.10592632293701,0.0
237,1.4481033086776731,-0.0009063232500920474,34.20574979782104,49.58730154037475,15.64346718788147,58.220968627929686,0.0
238,1.4476455092430114,-0.0010186201063333501,34.21024913787842,48.98351650238037,15.01953592300415,59.73052215576172,0.0
239,1.4467680662870408,-0.0015096887225808525,34.220001220703125,49.41025629043579,14.407814502716064,61.528221130371094,0.0
