sec,SCL,SCR,BVP,PVA,HR,MOTION
0,2.3259681940078734,0.0010000000474974,60.0164834022522,0.0,30.0,2.4775263547897337
1,2.5375378131866455,0.0010000000474974,51.52075710296631,0.0,30.0,0.0
2,2.5487914979457855,0.0010000000474974,50.62576303482056,0.0,30.0,0.0
3,2.5448622047901153,0.08068893617019053,51.087911987304686,0.0,30.0,0.0
4,2.529374051094055,0.15574845350347455,48.82295513153076,0.0,30.0,0.0
5,2.521324872970581,-0.010954332392429893,50.31074485778809,1.1355311393737793,34.65564594268799,0.0
6,2.519035851955414,-0.015613733604550307,49.95115985870361,7.570207595825195,61.03763961791992,0.0
7,2.5134662687778473,-0.01582929834257806,50.17887630462646,6.74969482421875,55.99626541137695,0.0
8,2.506714105606079,-0.014816372748464295,51.188033962249754,8.189255428314208,61.64555053710937,0.0
9,2.500686675310135,-0.01428216039203102,50.23748483657837,12.542124843597412,81.11893520355224,0.0
10,2.4927518546581267,-0.01669802237302058,49.05738725662231,13.914529705047608,98.8359619140625,0.0
11,2.4871440649032595,-0.016145802428945834,50.328449440002444,13.223443508148193,100.76426315307616,0.0
12,2.4813837230205538,-0.015473838266916506,50.56654453277588,21.794261026382447,98.27652797698974,0.0
13,2.4745933532714846,-0.015894208243116666,52.10866899490357,27.0268620967865,97.27270488739013,0.015446372516453252
14,2.468642234802246,-0.01536724460311227,47.02686185836792,33.80341882705689,96.97363319396972,0.031611180864274474
15,2.462881863117218,-0.015013019880279834,51.902320289611815,38.73199100494385,97.83141212463377,0.0
16,2.4539170384407045,-0.01769903469830748,47.726495552062985,37.0128210067749,101.44488716125487,0.0
17,2.4468596160411833,-0.017871836572885495,49.058608531951904,34.822345924377444,102.507320022583,0.0
18,2.4390011548995973,-0.018762480560690135,47.84615392684937,30.769230222702028,103.00897159576417,0.0
19,2.430379664897919,-0.020045946212485396,52.304029083251955,22.676434564590455,113.21006546020507,0.0
20,2.423741841316223,-0.018844748660922016,49.52564077377319,22.723442935943602,125.13391609191895,0.0
21,2.4196600854396815,-0.015573584777302996,49.802197742462155,27.79975633621216,115.59299392700196,0.0
22,2.416531801223755,-0.012263023294508419,51.768620014190674,28.590354871749877,111.06824474334717,0.0
23,2.410466343164444,-0.01248563670087601,47.194749641418454,31.509157371520995,109.97708377838134,0.0
24,2.400509661436081,-0.016657602484337945,48.633088970184325,36.08241710662842,106.9854543685913,0.0
25,2.392879980802536,-0.01817686446011063,50.99511594772339,36.56410264968872,102.23835468292236,0.002873743698000905
26,2.3859370410442353,-0.018758160993456802,46.361416482925414,35.51892566680908,99.72195663452149,0.014368718490004526
27,2.379566377401352,-0.017965368134900888,57.66971926689148,27.634310960769653,101.90384979248049,0.21660842597484584
28,2.3736152350902557,-0.01643298261333253,50.76984162330628,26.5201473236084,102.0408172607422,0.1902059061452746
29,2.3679692924022673,-0.014973779185675034,47.56898670196533,44.07509260177612,103.234912109375,0.027659783512353875
30,2.4076433718204497,0.027600196875573562,45.61965799331665,34.740537118911746,108.2388376235962,0.0
31,2.507057398557663,0.11343044955283396,52.753357601165774,33.20940160751343,108.75569515228271,0.0
32,2.5588625848293303,0.13361415769904844,47.42735033035278,31.56776580810547,108.75233459472656,0.0
33,2.5522629737854006,0.09080144334584468,50.50305261611938,32.97802267074585,110.05986862182617,0.0
34,2.5393688797950746,0.04287970932200545,50.5976806640625,36.504272651672366,105.65866203308106,0.0
35,2.5287636876106263,0.0017563939785759275,48.76861991882324,30.120879173278816,96.78702316284179,0.0
36,2.5191885054111482,-0.021031264727935144,50.38339424133301,27.863247871398926,91.9596429824829,0.0
37,2.509193700551987,-0.02581392154097551,49.91330919265747,25.239316415786746,92.05184841156006,0.0
38,2.5004196226596833,-0.023820562195032768,50.76800928115845,26.834554290771486,99.39997539520263,0.0
39,2.5249870121479034,0.008233079841738798,47.421245384216306,30.799755859374994,107.04323081970215,0.0
40,2.585795170068741,0.06435061320662491,45.20757036209106,33.781440305709836,107.17460231781006,0.0
41,2.5845744132995607,0.04959276756271712,49.10439567565918,34.604397010803225,98.27186546325683,0.0
42,2.5518814623355865,0.006364712581853366,48.82417602539063,32.903541564941406,84.23383026123047,0.0
43,2.5315484941005706,-0.02125487269368017,50.74236869812012,30.354089736938484,80.8080825805664,0.0
44,2.5175862908363342,-0.03851806046441194,51.55860824584961,30.10073208808899,80.53669261932373,0.0
45,2.5065233349800113,-0.04035816788673397,48.44810733795166,26.334554290771486,79.37533569335938,0.0
46,2.4974822282791136,-0.031469289492815675,50.662393283844,24.46520185470581,83.06079807281495,0.0
47,2.489928889274597,-0.024376370804384283,48.45116004943848,25.689865112304688,87.47269039154052,0.0
48,2.482184815406799,-0.021244197757914595,50.6990234375,27.081807327270507,93.52337245941162,0.0
49,2.47611927986145,-0.018278346722945503,49.93467645645141,28.22893829345703,98.32388038635254,0.0
50,2.4700155675411226,-0.016723600216209816,51.99023170471192,29.97191677093506,102.4641284942627,0.0
51,2.461699253320694,-0.017781817028298896,49.54273509979248,31.92918109893799,104.2123908996582,0.0
52,2.456472933292389,-0.016088821203447824,51.26434679031372,35.47618942260742,104.47587203979492,0.01149497479200362
53,2.4500640630722046,-0.015965840010903745,47.91514015197754,38.859585189819335,103.38784408569336,0.0
54,2.4439985752105713,-0.015611918992362899,47.94749717712402,38.91697235107422,94.16260623931883,0.016883244365453708
55,2.439115583896637,-0.014127272088080609,45.101953220367434,38.0463981628418,87.86374053955078,0.016164808720350258
56,2.4324778079986573,-0.014772703545167996,52.805860710144046,37.699023723602295,82.8660270690918,0.0
57,2.428090810775757,-0.013406773959286461,51.10500612258911,36.407815551757814,81.27991409301758,0.0
58,2.4247337579727173,-0.011430335021577732,50.20329666137695,33.21123504638672,81.94515380859374,0.0
59,2.41695151925087,-0.014046202064491762,52.15934076309204,30.3186815738678,84.65890789031982,0.0
60,2.3415326297283174,-0.07957685138098888,50.344933319091794,27.33211269378662,90.4719081878662,0.010058102943003168
61,2.1699804604053496,-0.2140421722084284,48.751526260375975,26.807693004608154,99.71970977783204,0.010058102943003168
62,2.1256141662597656,-0.19957620576024054,45.56166067123413,31.780830144882202,103.33522624969483,0.004310615547001358
63,2.1250419616699223,-0.140244947001338,51.71611728668213,34.38461627960205,100.69795646667481,0.0
64,2.1204260170459746,-0.08506696512922643,49.72893733978272,36.33821678161621,94.99011154174806,0.0
65,2.11355938911438,-0.03690222543664275,50.03052492141724,31.102564144134522,90.54925575256348,0.0
66,2.106769025325775,-0.01556755304336543,49.6459095954895,27.75824146270752,89.79526481628417,0.0
67,2.102381944656372,-0.013642763020470686,49.748473930358884,23.818070507049562,93.91513195037841,0.0
68,2.0973845720291138,-0.013495743833482208,51.283882999420165,27.848596239089964,102.44683589935303,0.01724246218800543
69,2.093111991882324,-0.012179792532697258,49.47374868392944,30.682540130615234,108.28647708892822,0.00574748739600181
70,2.0906323850154878,-0.009649975178763212,45.56837615966797,32.234432220458984,105.58307495117188,0.0
71,2.0855586528778076,-0.01037767729721957,48.2698413848877,33.88400363922119,99.19466705322266,0.0
72,2.0786919593811035,-0.012801701668649879,47.25641021728516,34.11416292190552,92.46562671661377,0.0
73,2.073007869720459,-0.013620780804194474,52.30586080551147,34.61904773712158,89.04719543457031,0.0
74,2.0681630790233614,-0.013552604708820543,50.15079355239868,32.65567626953125,88.42806510925293,0.0
75,2.063203811645508,-0.013324247067794165,50.89682512283325,29.72954797744751,92.16348781585694,0.0
76,2.058282661437988,-0.012632161099463659,51.540293025970456,27.63125705718994,95.95660743713378,0.00574748739600181
77,2.0546586513519287,-0.011121951998211404,50.525030517578124,26.43895001411438,102.21065464019776,0.0
78,2.049699378013611,-0.011411854182369962,51.13308916091919,29.802197456359863,108.74383487701417,0.02298994958400724
79,2.045121669769287,-0.01135089057497676,46.69597063064575,34.975579261779785,111.6086835861206,0.00574748739600181
80,2.038941633701324,-0.012811056151986073,50.68376035690308,38.648353099823,104.5320484161377,0.0
81,2.033104920387268,-0.013709008088335353,47.96275997161865,39.106227493286134,92.81466979980469,0.0
82,2.0276497840881347,-0.013959080819040487,47.33211240768433,39.22893848419189,85.3359338760376,0.0
83,2.022423487901688,-0.013736536074429703,50.5811972618103,36.228938007354735,82.91474628448486,0.0
84,2.0173115730285645,-0.013284260896034489,48.226495552062985,35.05250120162964,84.23028869628907,0.0
85,2.011551207304001,-0.013496966892853322,50.92124557495117,34.498778343200684,90.22995491027832,0.0
86,2.0060197949409484,-0.013662916724570045,52.90476188659668,31.04639811515808,94.85279426574706,0.0
87,1.9999541848897935,-0.014248260017484374,51.87912120819092,31.085469436645504,101.19782695770263,0.0
88,1.9941557049751282,-0.014413703605532596,49.902319717407224,35.962149715423585,106.31433601379395,0.02298994958400724
89,2.0178075611591337,0.013012159807840335,48.18986549377441,39.32234525680542,104.26479167938234,0.0
90,2.074228638410568,0.06266087749972932,47.51526279449463,42.649573516845706,101.41035194396973,0.0
91,2.0841853618621826,0.05777479605749242,47.42246627807617,43.78754682540894,93.06991081237793,0.0
92,2.082049000263214,0.03966902149841182,48.098900985717776,39.692308044433595,89.43103866577148,0.0
93,2.0785012245178223,0.019405969069339286,51.73199014663696,36.44810752868652,88.8731300354004,0.0
94,2.075258660316467,0.0010070676040413687,51.97374858856201,32.08913288116455,93.02484760284423,0.0
95,2.0713675022125244,-0.007932024961337403,50.553113269805905,32.271673965454106,100.70093212127685,0.0
96,2.070680856704712,-0.0061845302348955975,46.94932851791382,35.18925476074219,106.02707366943359,0.0
97,2.0692694187164307,-0.0050333999330177456,47.613553047180176,37.29975624084473,104.29603252410888,0.0
98,2.0655308425426484,-0.006203958252444815,50.24542102813721,36.677655220031745,99.43030471801758,0.0
99,2.0601138174533844,-0.008804465166758703,51.36385850906372,32.194749689102174,92.17602462768555,0.0
100,2.055078268051148,-0.010712326224893287,53.57753372192383,28.832723236083986,90.29614486694337,0.0
101,2.0496231377124787,-0.01248627360910173,51.9529914855957,23.76068353652954,93.49942417144774,0.0
102,2.0435575544834137,-0.013815456023439723,48.75152635574341,29.92307629585266,102.71945362091064,0.0
103,2.0412686347961424,-0.010887868097051933,45.54395608901977,35.0341875076294,109.58020629882813,0.03951397649943826
104,2.0793786346912384,0.028703869333548883,47.03052520751953,34.919413566589355,108.42644672393799,0.012931846827268589
105,2.149952709674835,0.08754193671047682,49.90964603424072,34.96336889266968,98.77058982849121,0.0
106,2.1824931144714355,0.09636909402906894,50.81196594238281,32.442001533508304,90.25899543762208,0.0
107,2.1758934438228605,0.06284456290304656,49.45848569869995,22.634920263290404,86.06130104064941,0.0
108,2.15922269821167,0.02097556262160645,50.88644704818726,20.66849789619446,87.30936069488526,0.0
109,2.1513259649276733,-0.0065452450900920275,48.17704496383667,19.929182147979738,92.25165901184081,0.0
110,2.150372266769409,-0.014473663130775045,49.39377307891846,19.949939155578612,95.41209983825684,0.0
111,2.1499907970428467,-0.01077703981427471,49.32905988693237,20.222221851348877,101.01648845672608,0.0
112,2.149571180343628,-0.004813759704120405,51.29731349945068,21.482905864715576,104.65891494750977,0.0
113,2.150791883468628,-0.00023321651096921248,51.68681297302246,20.88705768585205,109.82598628997803,0.0
114,2.1511733531951904,0.0007704121846472474,53.75152616500854,25.53357810974121,113.42521362304687,0.0
115,2.146672010421753,-0.00341376576398029,50.21306486129761,32.12820568084717,115.28881206512452,0.01724246218800543
116,2.144039648771286,-0.00499581412877882,45.24297904968262,36.04578800201416,112.64255695343017,0.01580559015274046
117,2.142094135284424,-0.005695556476712175,45.935897254943846,40.42429895401001,101.11201095581053,0.04939246959984297
118,2.136982315778732,-0.00869657682487736,48.759463214874266,40.14346714019776,87.55812454223633,0.0014368718490004526
119,2.135570800304413,-0.0069509761931839924,48.9755802154541,36.52930402755738,80.70981330871582,0.0
120,2.1538056552410128,0.012716388421358662,48.606837558746335,37.069597244262695,79.60206985473633,0.0
121,2.2098071217536925,0.06150589697062969,52.30891332626343,38.51587247848511,80.08764839172363,0.0
122,2.2397152960300444,0.07409352865070104,49.34065942764282,34.83028039932251,80.97742538452148,0.0
123,2.2293389678001403,0.04443100043572484,50.16849822998047,31.257020616531378,82.57557697296143,0.0
124,2.2129734456539154,0.011086442075065829,49.05799760818481,30.7399263381958,90.24331760406494,0.0
125,2.201109308004379,-0.013687539356760647,51.299755859375,27.5384617805481,97.51219596862792,0.0
126,2.1955015659332275,-0.02268927195109424,51.68803434371948,29.910256576538085,104.22756252288818,0.021193859726190544
127,2.1918011605739594,-0.019131035078316906,48.64957256317139,35.29304122924805,109.76612491607666,0.0093396671116352
128,2.189931869506836,-0.011974207498133143,48.58730154037475,39.848596286773684,108.36805076599121,0.0
129,2.189970016479492,-0.005729729798622378,46.47008562088013,42.3540901184082,103.31359558105468,0.0
130,2.1869564056396484,-0.005203664867440193,48.65140428543091,40.01770467758179,97.69987297058105,0.0
131,2.182836413383484,-0.006682070111855817,50.00305261611938,35.634309959411624,95.41158294677734,0.0
132,2.1792886257171635,-0.00778990474063899,51.36507930755615,36.54822959899902,97.48606281280517,0.0
133,2.1765801906585693,-0.00789326488738875,51.600732421875,34.81562805175781,101.77344818115235,0.0
134,2.1757790625095366,-0.00592437784653152,48.760072994232175,35.6507926940918,107.76924133300781,0.0
135,2.1744818747043606,-0.0044677175406831774,50.47191724777222,38.774724102020265,111.62042922973633,0.008621231094002715
136,2.17444372177124,-0.002468640450388145,48.496337509155275,38.642856979370116,113.71042137145996,0.008621231094002715
137,2.175855302810669,0.00022467885282820757,49.97191648483276,35.18437156677246,114.3566270828247,0.007184359245002263
138,2.180585622787476,0.004851275385590215,52.01159934997558,37.34371309280395,114.50381469726562,0.02442682161927221
139,2.1814630031585693,0.0046411037445067875,46.99816865921021,37.852258968353276,111.74493923187256,0.03861593082547185
140,2.1797082424163823,0.001781352367834135,49.37851037979126,37.885837650299074,103.53143482208252,0.029276263713836636
141,2.1774193823337553,-0.001396877149090875,45.63797292709351,38.56166076660156,89.64096622467041,0.03232961669564244
142,2.1697897315025325,-0.008830343547742769,46.81929197311401,37.9682544708252,85.06668510437012,0.0
143,2.1595278918743133,-0.016397916967980528,51.439560413360596,37.329670143127444,83.04819107055664,0.0
144,2.1483886361122133,-0.021913037262856934,49.25885200500488,38.10256366729736,82.82466259002686,0.0
145,2.1403775036334993,-0.022676608385518156,51.36202707290649,31.213064098358153,86.43240127563476,0.0
146,2.1318323075771333,-0.022703222092241012,51.305250358581546,28.456654644012453,91.54799118041993,0.0
147,2.123172676563263,-0.02207224881276484,49.23748483657837,27.167277336120605,96.84236907958983,0.0
148,2.115581250190735,-0.020564895588904574,50.600122165679934,28.17582483291626,102.7629825592041,0.0
149,2.1088290214538574,-0.01892333705909546,50.77777757644653,29.025030279159544,106.60703754425049,0.0
150,2.1050904750823975,-0.015234122960828206,49.65262479782105,30.404151153564452,110.84987163543701,0.0
151,2.1007416248321533,-0.012938497168943219,49.22771663665772,30.498167991638184,113.07616672515869,0.0
152,2.0964690029621122,-0.01144929132424289,51.815018272399904,31.815628480911254,114.3425064086914,0.0
153,2.0972319662570955,-0.006015867032692715,51.39865665435791,34.695359992980954,115.3851432800293,0.0
154,2.1063112318515778,0.0051035350195888455,49.06043949127197,39.177045822143555,115.41164627075196,0.025863693654537178
155,2.1136738479137422,0.011776780779473429,45.937729072570804,40.98596019744873,109.73912696838379,0.020116205886006336
156,2.1161534786224365,0.011720000975765239,46.1385835647583,42.17094039916992,99.80167274475097,0.002873743698000905
157,2.1114993929862975,0.0039585720939157515,52.5244197845459,41.06349048614502,86.37219772338867,0.0
158,2.1048615992069246,-0.005103189331202833,50.13369941711426,38.51953458786011,80.97699737548828,0.0
159,2.0966979026794434,-0.0131746064871549,51.586690998077394,34.61294326782227,79.9474479675293,0.0
160,2.085062712430954,-0.02095023128204044,49.23443212509155,29.830891609191895,82.48413677215576,0.0
161,2.0770134747028353,-0.0218812439590692,50.20085458755493,30.168498277664185,88.52281551361084,0.0
162,2.0719778537750244,-0.018941422854550135,52.26617851257324,27.426129388809205,96.5512170791626,0.0
163,2.0897930920124055,0.004856532328994935,48.56776552200317,33.66972093582153,106.9986515045166,0.026222911663353426
164,2.1227530539035797,0.03648679954931132,44.97924308776855,36.147741889953615,109.71019821166992,0.012931846641004075
165,2.132366418838501,0.03845115182921282,50.01221017837524,37.25152702331543,106.0511260986328,0.0
166,2.1294671416282656,0.025307232374325327,48.50122098922729,38.713065719604494,99.4932165145874,0.0
167,2.120464152097702,0.006087393731286245,50.66361436843872,37.21856002807617,95.28651847839356,0.0
168,2.1144750118255615,-0.00764703524182545,50.93284511566162,32.95604419708252,95.12332725524901,0.0
169,2.1112322866916657,-0.011890119314193672,49.827838802337645,29.71916961669922,95.42744827270506,0.00574748739600181
170,2.1123767733573913,-0.007093877478473537,50.53968276977539,25.666667366027838,99.65527153015137,0.0
171,2.155636763572693,0.036787000228650814,50.0982907295227,24.321122932434083,102.72018642425537,0.0
172,2.2334589660167694,0.10025794766843318,51.07387027740479,29.465200853347778,107.72603626251221,0.024786039255559424
173,2.2567674696445463,0.09677056446671485,51.46520128250122,28.443834352493287,111.63749351501465,0.033227661252021756
174,2.246810829639435,0.05914320070296525,53.434676265716554,31.27411541938782,114.98995532989503,0.0
175,2.2809915363788607,0.06416962929069994,49.338827800750735,35.82783975601196,118.49003448486329,0.008980449289083476
176,2.346758931875229,0.09219259377568959,46.73076944351196,39.14957180023193,118.75614509582519,0.0380771046504378
177,2.3695715367794037,0.08207146394997832,45.43223428726196,41.54883909225464,108.9078498840332,0.00574748739600181
178,2.3950925886631014,0.08104222249239679,45.40964603424072,43.04578914642334,96.31869888305665,0.0
179,2.3923459470272066,0.049326225556433165,53.381562900543216,41.0067156791687,86.17394256591797,0.0
180,2.369876724481583,0.0020140593682299326,50.368742275238034,38.75335903167725,83.22987747192383,0.0
181,2.3375652134418488,-0.03751286058686667,50.10500593185425,36.673993301391604,82.77016830444336,0.0
182,2.3147144973278047,-0.05312273651361458,47.98534784317017,35.92185592651367,84.92492198944092,0.0
183,2.3052156388759615,-0.04799840673804275,50.53785095214844,36.695359325408944,90.01644783020019,0.0
184,2.2968993186950684,-0.03706267671659581,50.95116004943848,37.391941452026366,96.44437866210937,0.0
185,2.294534206390381,-0.022249662270769417,49.36935272216797,35.42124662399293,101.78436737060547,0.0
186,2.291787475347519,-0.01293650043662633,52.888278293609616,35.13736219406128,104.29402885437011,0.0
187,2.288621187210083,-0.00918983053416009,51.482905578613284,38.75030546188354,107.35661468505859,0.044183809682726824
188,2.2869045734405518,-0.00653371129883448,49.33699655532837,43.430403804779054,109.18290729522705,0.033407270908355685
189,2.284005165100098,-0.006359381927177258,43.065323448181154,47.2826623916626,104.9683744430542,0.020116206072270854
190,2.2899182021617888,0.0015743547919555574,49.57753381729126,47.741147422790526,97.85952644348146,0.025863693468272664
191,2.318300414085388,0.027925149677321275,48.27167272567749,45.07692260742188,91.19724617004394,0.010058102943003168
192,2.332758605480194,0.03470181231386957,52.45909671783447,43.32600593566895,88.68231201171875,0.0
193,2.328829288482666,0.022077528713270966,49.10622692108154,42.57753353118896,87.70356101989746,0.0
194,2.3231070697307588,0.008195490780053608,50.584249591827394,37.13919496536255,89.0718900680542,0.0
195,2.315439301729202,-0.006245181435679076,50.23870582580567,32.60073208808899,93.35242156982422,0.0014368718490004526
196,2.307657128572464,-0.015620263176970134,48.70879106521606,31.138584041595458,99.04162483215332,0.008621231094002715
197,2.299951171875,-0.018446858599781936,48.84676427841187,30.691086959838866,103.00612907409668,0.0
198,2.2934660017490387,-0.01796857146546239,49.9297926902771,31.171550846099855,108.31380310058594,0.0
199,2.289841890335083,-0.014693348808214027,50.77106246948242,30.92735047340393,111.89095535278321,0.0
200,2.28560751080513,-0.012492333911359267,51.61965799331665,34.37240490913391,115.53984107971192,0.0
201,2.2874004542827606,-0.005643645039526698,50.57387056350708,38.71489686965943,115.83312301635742,0.03771788608282801
202,2.2888882160186768,-0.0011190210076164875,43.22893786430359,42.02441902160645,113.4698989868164,0.0
203,2.2892696857452393,0.000779608320226515,47.20207614898682,43.199021911621095,105.16713256835938,0.0
204,2.2917873859405518,0.0034720579598796998,51.699022960662845,44.61904640197754,95.9589786529541,0.0
205,2.2879345297813414,-0.0009646285267251548,50.20940160751343,38.824786472320554,90.7376636505127,0.0
206,2.280610084533692,-0.007987712684553063,51.16239309310913,34.03540945053101,93.0011142730713,0.0
207,2.2762229621410373,-0.010237696324475066,51.60561656951904,33.403540992736815,98.15629062652587,0.0
208,2.270653396844864,-0.012837974005378736,53.61294231414795,32.57387080192566,102.1953145980835,0.0
209,2.2627948641777036,-0.015828771237283885,53.92796106338501,34.71306619644166,108.76483383178712,0.02155307773500679
210,2.260620355606079,-0.012162251723930192,45.64224648475647,38.759463500976565,111.74863014221191,0.0
211,2.2600862979888916,-0.007921761542092964,46.824786281585695,44.407813262939456,110.51371994018555,0.012931846641004075
212,2.255355966091156,-0.008699703821912359,43.16849813461304,46.67460250854492,105.39953155517578,0.0
213,2.2481841742992397,-0.011444085300899985,51.89560432434082,46.35409049987793,93.34622955322266,0.0
214,2.2410504519939423,-0.014204711234196962,49.69841289520264,43.17643384933472,87.31322402954102,0.0
215,2.232696008682251,-0.01767888525500887,52.414529705047606,41.01098899841309,86.47892265319824,0.0
216,2.2250664234161377,-0.018863448640331563,49.075701808929445,37.268009281158456,87.19643287658691,0.007184359245002263
217,2.219306004047394,-0.017455325229093353,51.562271404266355,34.23748569488525,92.59139614105224,0.0
218,2.2127064049243925,-0.016971031483262698,51.59706974029541,31.820513343811037,98.6152099609375,0.0
219,2.205916005373001,-0.016647565644234377,53.022588443756106,35.32661800384521,105.50260944366455,0.012931846641004075
220,2.201414585113525,-0.014455645368434453,49.67338237762451,41.48962020874024,109.37297668457032,0.012931846641004075
221,2.2018723487854,-0.008508169103879437,46.83211221694946,45.14163608551026,105.45474224090576,0.0
222,2.204428195953369,-0.00221337364055211,44.153846168518065,46.79365158081054,99.10578002929687,0.024426821433007694
223,2.201605319976806,-0.00244643349433313,49.491453075408934,46.330282306671144,91.16026897430422,0.027300565689802152
224,2.1994308233261104,-0.00292284485185514,49.36935234069824,45.423687267303464,85.21231479644776,0.0
225,2.198858499526977,-0.00259017717326055,53.857753372192384,44.636751079559325,83.75749645233154,0.0
226,2.2001938521862026,-0.0009718103174236025,46.81013431549072,44.64591026306152,86.36998405456544,0.0
227,2.196569681167602,-0.0036197821493260027,49.84920597076416,41.15140256881714,90.84347438812256,0.0186793342232704
228,2.1911908090114594,-0.007147072919178719,50.87973136901856,35.873016357421875,94.97055435180664,0.0
229,2.184247887134552,-0.011504719918593722,50.28815612792969,34.83028144836426,100.06349754333496,0.0
230,2.1813485741615297,-0.011147734709083989,50.77838840484619,36.72771835327149,103.76835250854492,0.0
231,2.175740844011307,-0.012614701758138789,48.763735961914065,38.90476083755493,108.91358184814453,0.0
232,2.1710104942321773,-0.01217032384593036,47.82600712776184,37.43834018707276,112.1242431640625,0.0
233,2.1707434654235835,-0.007810851500835228,50.09279651641846,37.65567855834961,113.86100635528564,0.0
234,2.1661656737327575,-0.008682028995826794,51.80708169937134,38.31013526916504,114.42199573516845,0.0
235,2.164639747142792,-0.006489715691350243,51.536630153656006,40.36874294281006,115.48587207794189,0.014368718490004526
236,2.1772286117076876,0.007745099904059261,50.9688642501831,42.31501808166504,115.45093154907227,0.020116205886006336
237,2.185392367839813,0.014075803174637195,52.00793619155884,48.18192958831787,111.3842700958252,0.018679334037005883
238,2.200041180849075,0.02460074694827196,45.18070831298828,50.124542999267575,101.60482234954834,0.04939247015863653
239,2.2162923157215118,0.03277943730354309,47.00915765762329,49.59829177856446,93.10506744384766,0.01508715450763701
240,2.2146519243717195,0.020619200775399773,53.09340677261353,49.4664213180542,86.11953067779541,0.0
241,2.2104938030242924,0.00805766468401993,46.98229532241821,50.858973884582525,83.19289970397949,0.0
242,2.205687075853348,-0.001935234240863758,51.769841003417966,47.476189613342285,83.44037532806396,0.0
243,2.2022538185119624,-0.007843685138504905,47.71367521286011,40.29303932189941,85.05221557617188,0.0
244,2.197752273082733,-0.010462223435752057,51.90170955657959,38.5189245223999,91.90631332397462,0.01149497479200362
245,2.192907494306564,-0.011080680834129419,50.25946273803711,41.30341854095459,98.73542919158936,0.0
246,2.189016342163086,-0.010562043031677567,47.172771739959714,44.32722854614258,101.55748901367187,0.004310615547001358
247,2.186880111694336,-0.008752604899927931,46.954823112487794,45.3968264579773,99.54064273834227,0.0
248,2.1824930727481844,-0.00935564576648172,50.93650817871094,41.373626136779784,98.94908294677734,0.0
249,2.176274925470352,-0.011367635242640926,51.38156270980835,39.38034076690674,101.36045913696289,0.0
250,2.1726889610290523,-0.010752709722146352,51.2765567779541,39.347985076904294,103.81131973266602,0.0
251,2.169293880462646,-0.010175237199291545,50.56776571273804,42.56410217285156,109.0182056427002,0.0
252,2.165822297334671,-0.009556919941678597,51.03296718597412,43.95054941177368,112.86399879455567,0.0
253,2.1616642475128174,-0.009500819141976497,46.76739892959595,43.58608026504517,114.10130920410157,0.0
254,2.1574678480625153,-0.00976135926321144,46.72161178588867,41.81806983947754,114.08589324951174,0.0
255,2.1544923782348633,-0.009052921435795678,50.391941165924074,44.393772506713866,113.19186019897461,0.0
256,2.1526994109153748,-0.007347811420913737,51.68437070846558,47.24481048583984,108.99254989624023,0.0
257,2.154568672180176,-0.0026246116349283944,50.421856212615964,49.85347938537598,101.0678783416748,0.02155307773500679
258,2.1573915481567383,0.0016621998391200914,46.23626394271851,50.20146656036377,92.60322952270508,0.002873743698000905
259,2.1526230812072753,-0.002293554930656645,49.55128231048584,45.349206161499026,85.81444969177247,0.0
260,2.145489352941513,-0.008044909569434768,45.63492078781128,43.63858413696289,83.1057243347168,0.0
261,2.138699024915695,-0.012543512857519038,52.86630048751831,45.02564105987549,84.40222930908203,0.0
262,2.1356089115142822,-0.012331914901733344,49.32661771774292,44.00244226455688,87.06403751373291,0.007184359245002263
263,2.1329004764556885,-0.010624020476825485,50.13003664016723,40.229547882080084,90.74969863891602,0.0
264,2.127330845594406,-0.011155707784928328,50.03479843139648,37.14102630615234,94.81696891784668,0.0
265,2.1201208353042604,-0.0133194185327738,50.86141691207886,36.8638578414917,99.95365295410156,0.0
266,2.1164205074310303,-0.012224671989679282,48.589132976531985,36.5744815826416,103.38152503967285,0.0
267,2.113139796257019,-0.011118662892840744,49.69413938522339,36.985346508026126,106.25017681121824,0.0
268,2.108943462371826,-0.010633636638522093,51.3840048789978,38.432233047485354,110.94281177520752,0.0
269,2.105929803848267,-0.009019885770976486,49.946275806427,39.95360336303711,113.55811004638672,0.0
270,2.10432745218277,-0.006864215643145083,48.62087917327881,45.44261302947998,113.4545783996582,0.00574748739600181
271,2.1055100917816163,-0.0029782272438751175,50.670940208435056,49.73015823364258,110.56287899017335,0.014368718490004526
272,2.1131397664546965,0.0057940400845836425,47.55555543899536,51.7008544921875,103.14807510375977,0.03412570692598817
273,2.1187474727630615,0.01030311356298621,45.431624031066896,53.161172485351564,95.63525466918945,0.12967768236994737
274,2.123706811666489,0.012454290338791857,53.03113598823548,53.01953659057617,89.19753284454346,0.22235591337084765
275,2.123592376708985,0.008508627745322832,46.64285707473755,55.882783603668216,87.79296188354492,0.07884834036231039
276,2.1211507499217985,0.0025104315456700903,47.26434679031372,49.317460250854495,91.1267074584961,0.04867403395473952
277,2.1197774410247803,-0.00111809004592938,52.76495695114136,37.37789869308472,98.00888729095458,0.06196509730070825
278,2.115009015798569,-0.006216032468364525,51.30830278396606,32.28327121734619,106.17112102508545,0.02765978332608936
279,2.1063493847846986,-0.012730532046407408,50.520146656036374,27.570818376541137,110.91649875640869,0.00574748739600181
280,2.1003220081329346,-0.01453867189120496,51.58791189193725,28.33150186538696,113.29980182647705,0.00574748739600181
281,2.0962019324302674,-0.013836970203556065,50.55372400283814,30.655677795410156,113.03703365325927,0.0
282,2.0936079025268555,-0.01133492791559541,51.29731407165527,31.559828758239746,112.88805389404294,0.0071843594312667805
283,2.0897549211978914,-0.00990618835203344,50.8601954460144,34.744811058044434,112.88805389404294,0.013291064649820317
284,2.089411562681198,-0.005985078617231869,46.10195388793945,41.339439392089844,112.88805389404294,0.0
285,2.0896023511886597,-0.00315869763144287,47.49084215164184,44.967034339904785,111.30294742584226,0.0
286,2.0846049785614014,-0.005994590109912623,50.84737491607666,43.81257648468018,103.25999641418457,0.0
287,2.0799889624118806,-0.008019700238946785,53.81501808166504,39.35470027923584,98.73807106018067,0.0
288,2.076632022857666,-0.008732328005135022,50.43528699874878,39.31623840332031,101.37306594848633,0.0
289,2.07319860458374,-0.009304723236709795,52.6697190284729,42.19902391433716,104.16237945556641,0.0
290,2.0709478855133057,-0.00791040827753018,47.45604391098023,43.272892475128174,104.6350082397461,0.0
291,2.070413827896118,-0.0051307655754498655,46.012820434570315,42.33455410003662,103.14455108642578,0.00574748739600181
292,2.066789722442627,-0.006128361122682642,51.29975595474243,42.70818166732788,98.51966285705566,0.0
293,2.063966751098633,-0.0063141051097772545,47.78327236175537,40.65018310546875,96.63713932037355,0.01724246218800543
294,2.062173843383789,-0.005767513439059213,46.403540992736815,40.34188022613526,96.65533733367919,0.03735866807401177
295,2.057519721984863,-0.00806033734697844,52.15323534011841,42.13369894027711,96.7644453048706,0.0
296,2.0524461269378667,-0.009943392174318395,50.96764316558838,41.64041471481323,98.47129001617432,0.0
297,2.0483260214328767,-0.010385039635002567,47.69902286529541,35.06715393066406,98.97058792114258,0.0
298,2.0439391136169434,-0.010949620767496481,50.70696020126343,32.16788673400879,101.60139236450195,0.0
299,2.041726356744766,-0.009034693567082237,51.8693528175354,31.067155170440675,103.83570861816406,0.0
300,2.039819002151489,-0.0071674960199743,51.62087888717652,30.873015928268433,107.373978805542,0.0
301,2.0381023883819576,-0.0056116444757207725,51.74175815582275,31.176434898376463,111.97610454559326,0.0
302,2.0398571491241455,-0.0015949498978442827,50.30097675323486,37.763125610351565,114.78550987243652,0.00574748739600181
303,2.037797212600708,-0.002264338443637778,47.04212474822998,41.72405281066895,116.73045597076415,0.0
304,2.035851716995239,-0.0030051163223105927,45.07570171356201,45.888889122009275,111.66611137390137,0.0
305,2.0369579792022705,-0.0009855066004092374,51.55189275741577,46.95970754623413,100.21223144531248,0.0
306,2.0336008310317992,-0.003720495832385445,49.763125610351565,43.687424182891846,91.03561706542969,0.0
307,2.032456398010254,-0.0036249705764930173,53.06898651123047,40.5647141456604,89.36809272766114,0.0
308,2.0296716690063477,-0.0048711050418205,49.214896297454835,38.0775333404541,92.2787109375,0.0
309,2.025933057069779,-0.006839879066683298,51.05128192901611,37.35286979675293,95.87821617126465,0.0
310,2.023720502853394,-0.00668641272932286,51.38156299591064,36.555555534362796,101.35010604858398,0.0
311,2.0205161154270175,-0.007251937896944527,50.12454233169556,40.024420166015624,107.46770324707032,0.0
312,2.0198294043540956,-0.00531559049268248,48.42979235649109,44.440780830383304,110.44681129455566,0.02909665554761885
313,2.021507978439331,-0.00158180281723613,44.88583641052246,47.252747917175284,105.65899143218994,0.01724246218800543
314,2.0179219245910645,-0.0035714966827071677,47.33211259841919,48.31013450622559,98.6417739868164,0.0
315,2.0139927864074707,-0.0057505970820783976,51.28632488250732,48.443833923339845,89.13241424560547,0.0
316,2.010635620355606,-0.007103775546420317,48.79609308242798,45.42551898956299,83.96250896453857,0.0
317,2.0084612369537354,-0.007260910712648132,53.064102268218996,42.996337509155275,82.29437026977538,0.0
318,2.0054857313632963,-0.007422077981755088,48.94993877410889,37.49084129333496,82.18495483398438,0.0
319,2.0024337768554688,-0.007305653928779017,50.71550693511963,34.121489429473876,87.82234363555908,0.0
320,1.9996109008789062,-0.007121458521578412,51.042734909057614,32.32478699684143,93.59537467956542,0.0
321,1.9971312403678894,-0.006826925859786524,48.47741146087647,30.549450874328613,97.58187484741211,0.0
322,1.99503313601017,-0.006250200804788575,48.91514081954956,32.146521759033206,103.49315795898437,0.0
323,1.992858648300171,-0.005769477551802943,49.86568984985352,37.114164352417,108.84316158294678,0.0
324,1.992858648300171,-0.00355731643503526,48.380341625213624,39.955434036254886,109.90417728424072,0.018679334037005883
325,1.992553472518921,-0.0022250788519158427,44.39743614196777,44.73748483657837,106.97072677612304,0.0
326,1.993964996933937,0.00023040104642856252,53.652014541625974,46.73137989044189,97.69525814056398,0.0
327,1.9925153464078904,-0.000722975534154065,48.915140342712405,46.78876495361328,90.43151473999022,0.0
328,1.9903790205717087,-0.0023751981148961423,52.86507921218872,45.993895053863525,86.0820348739624,0.0
329,1.9894634574651717,-0.0027025712333851926,48.3778998374939,44.916972160339355,84.1891565322876,0.0
330,1.9870983064174652,-0.004209052133955945,49.652624893188474,38.55006122589112,85.70792198181152,0.0
331,1.9840083122253418,-0.005709952430333887,48.14835176467896,35.38461685180664,91.65100212097168,0.0
332,1.9816812515258788,-0.005928938719443928,52.35103778839111,34.74358997344971,95.76146564483642,0.06771258525550364
333,1.9794687032699585,-0.00595857185544441,50.43894958496094,35.31135559082031,98.79025459289551,0.17404110133647915
334,1.9778664320707322,-0.005301270727068135,49.72588510513306,40.440782165527345,97.08157806396484,0.15374528393149373
335,1.9747382551431656,-0.005979503772687118,47.88949956893921,40.4181941986084,80.21839923858643,0.031611180678009956
336,1.9732886552810665,-0.00518115700688207,46.847374725341794,39.42551813125611,94.2914499282837,0.0
337,1.9724875688552852,-0.003965540154604192,50.220390701293944,41.30646991729737,107.27868480682373,0.0
338,1.9697027385234835,-0.004906781821045968,48.32417573928833,38.07570190429688,111.2951789855957,0.0
339,1.9684438705444336,-0.004216339485719745,50.18009748458862,41.28632459640503,112.11362018585206,0.0
340,1.9673376083374028,-0.0036690212320535875,53.56227111816406,39.316239261627196,110.85093765258789,0.002873743698000905
341,1.96600239276886,-0.0035522903781383753,54.56471300125122,40.9853476524353,107.87975940704345,0.05154777783900495
342,1.9638279408216477,-0.004130200704093973,45.23260087966919,47.948107719421394,103.32815494537354,0.021912296116352068
343,1.9613101482391357,-0.004915757430717295,42.01037864685058,53.2600742340088,98.17164993286133,0.012931846641004075
344,1.9583727806806563,-0.006063305353745755,49.884615135192874,50.03296709060669,87.88647899627685,0.0
345,1.9557023763656616,-0.006513919180724715,50.36202697753906,44.98168563842773,84.23613262176514,0.0
346,1.9541001319885254,-0.00575123287271703,51.29181900024414,40.81624069213867,85.86280174255371,0.013650282472372039
347,1.950514242053032,-0.006815426261164208,50.35347967147827,38.39682579040527,93.31938934326172,0.0
348,1.9479201495647431,-0.006754126143641725,50.46581172943115,36.18070678710937,100.77031784057617,0.0
349,1.94521164894104,-0.006792883644811764,51.145299243927,37.087301921844485,105.49312229156494,0.0
350,1.9445631504058838,-0.004994708026060795,47.0463981628418,42.2246639251709,109.56630687713623,0.0
351,1.9421597838401794,-0.005135595786850855,48.99633731842041,41.41147689819336,108.04217872619628,0.0
352,1.9401760667562484,-0.004789077833993317,49.36202697753906,41.487790489196776,107.09811191558838,0.0
353,1.9399471670389175,-0.003270119574153745,49.86935272216797,40.684370803833005,108.15389881134033,0.0
354,1.9368190437555313,-0.004804426012560687,49.292429256439206,41.40171031951904,108.52539520263672,0.0
355,1.9343012571334843,-0.005424491583835285,50.99816846847534,40.553724479675296,108.68397083282471,0.0
356,1.9322794497013092,-0.005412338743917595,49.08730125427246,42.603785800933835,110.48743743896485,0.0
357,1.9297997951507568,-0.005931965541094492,49.32600727081299,41.93040256500244,109.97212028503418,0.028917045705020395
358,1.9279305279254912,-0.0054659114102832505,49.666056060791014,41.542124080657956,109.14935398101807,0.0
359,1.9269386887550355,-0.004291910806205077,51.1703296661377,42.7350435256958,109.70272006988526,0.0
360,1.9254509210586543,-0.003906843782169688,50.97313804626465,45.51526374816895,111.36740036010742,0.0
361,1.9272820144891738,-0.00058184222725684,46.19352879524231,50.29975490570068,107.52185344696045,0.0
362,1.9304101943969727,0.00294542765477667,49.65079374313355,54.403540992736815,103.61863231658936,0.004310615547001358
363,1.9332331418991089,0.005081911303568575,46.645909786224365,56.47374954223633,96.25,0.024426821433007694
364,1.9300668507814407,0.001072390445187905,51.97008543014526,52.19352941513061,90.25467319488524,0.0
365,1.926938652992248,-0.0025222903175744623,50.717948818206786,47.2100133895874,88.92200660705566,0.0
366,1.9245353579521178,-0.004929945053299825,48.55189266204834,45.233821868896484,92.42233734130859,0.025684083998203246
367,1.9191183179616929,-0.008942813123576298,50.269230651855466,43.5757022857666,97.8110137939453,0.0
368,1.914349800348282,-0.010557484324090136,50.272894096374515,43.10622711181641,101.67277030944824,0.0
369,1.9127094119787216,-0.008492893364746072,51.28083066940307,43.30158767700196,103.89691314697265,0.0
370,1.9144642323255538,-0.0037429907519253404,48.021367359161374,43.155066967010505,107.48837013244629,0.0
371,1.915761289000511,-0.00036020293408680254,47.63369941711426,43.05006065368652,110.16331558227539,0.0
372,1.9145023822784424,-0.00027615456405100265,48.62454214096069,42.95115966796875,111.8376501083374,0.00574748739600181
373,1.9124805092811585,-0.001698393478000025,49.512820434570315,44.02503128051758,112.28429622650147,0.0
374,1.911183476448059,-0.0026889789645792375,50.188033962249754,45.160562419891356,109.93373832702636,0.01724246218800543
375,1.9088565021753312,-0.004342205030843565,51.264346504211424,45.62637310028076,108.90450592041016,0.0
376,1.9070253372192383,-0.00467673710081721,50.152625274658206,45.40231876373291,108.14850044250488,0.0
377,1.9047746658325195,-0.005087452847510518,47.684371089935304,43.957873916625985,106.91156558990478,0.0
378,1.9043550491333008,-0.0036898204300086454,50.0079363822937,46.188033962249754,107.16170597076416,0.0
379,1.9039353996515274,-0.00254144768696273,52.54517679214477,49.955432415008545,108.01080322265622,0.0
380,1.9054231643676758,1.1889137385877498e-05,44.7655677318573,53.39438266754151,106.52625007629395,0.01724246218800543
381,1.9072160720825195,0.00206819257145978,50.56104984283447,57.492063331604,99.0289258956909,0.0
382,1.9076357156038284,0.00223497620754638,48.46825351715088,61.190474891662596,89.22924823760987,0.0
383,1.9069109052419662,0.0008611223485786374,48.849206638336184,58.691697120666504,81.89825077056885,0.0
384,1.9025620490312576,-0.0036236097541404453,49.907204246521,53.8382173538208,80.46776123046875,0.0
385,1.9006546139717102,-0.004920511576346995,51.37179479598999,48.25824155807495,82.89328460693359,0.0
386,1.8987472057342534,-0.005446636129636257,49.299755859375,42.700243663787845,88.62589435577391,0.0
387,1.8934827744960785,-0.008546317520085668,52.47741117477417,37.47557916641235,94.94674072265624,0.0
388,1.8872646301984788,-0.011206620791926936,52.59218530654907,40.431623268127446,104.02643375396728,0.0
389,1.8857387065887452,-0.009054449538234572,50.077533626556395,48.79059782028198,110.15324668884277,0.0
390,1.886043906211853,-0.005630280869081567,45.412698316574094,49.06043901443481,109.45590648651122,0.0
391,1.8869212865829468,-0.00208842529973476,44.36507930755615,46.129425048828125,105.75555686950683,0.0
392,1.886158314347267,-0.0009440488797252695,51.12698402404785,42.86263771057129,104.39253101348876,0.0
393,1.884517908096313,-0.0015959035779814727,53.738706016540526,41.02075729370117,104.97138271331785,0.0
394,1.883068323135376,-0.0026080699259181978,53.3449330329895,47.35164842605591,109.84807586669922,0.0
395,1.8789864927530289,-0.00571188458707179,49.37301568984985,50.0427342414856,109.76921005249024,0.0
396,1.8775368243455888,-0.005482904566451863,45.56776571273804,52.25396881103516,105.20909729003907,0.0
397,1.8770408749580383,-0.00405878963647405,48.36507949829102,49.28571367263794,100.22624683380127,0.0
398,1.8761634826660156,-0.0032809666183311,50.29243021011352,45.45299129486084,96.88582916259766,0.0
399,1.8728446155786513,-0.004678497865097553,51.21001234054565,51.16483392715454,99.942698097229,0.0
400,1.8715094327926636,-0.004208057280629828,52.396825313568115,49.11843643188477,102.28297328948975,0.0
401,1.8723105192184448,-0.002176276844693285,49.34493265151978,47.5982894897461,103.11292343139648,0.0
402,1.8711661100387573,-0.0022656497545539725,50.0115993976593,44.97374935150147,103.63367652893066,0.0
403,1.8672750174999238,-0.004646848770789752,48.06105031967163,49.731380462646484,109.1038932800293,0.0
404,1.864757204055786,-0.005460037465672893,47.890720462799074,52.07448043823242,110.78301124572754,0.0
405,1.865138685703278,-0.003593367084977165,49.14224672317505,52.9822958946228,108.46643505096435,0.0
406,1.8655201852321628,-0.0019731808191863374,46.72588539123535,50.28083038330078,100.70893764495851,0.0
407,1.8634601831436157,-0.002510573741164945,49.82600746154785,47.229547786712644,96.42359828948976,0.0
408,1.8631550073623653,-0.0016115767561131525,52.948107433319095,47.21550760269165,97.70992794036866,0.0
409,1.8614002287387847,-0.00264410604140716,49.3693528175354,54.60256452560425,100.46124458312987,0.0
410,1.859569075703621,-0.0036623652500565526,49.19047632217407,51.18925457000732,100.06437034606932,0.0
411,1.857623502612114,-0.004206491244258305,49.68315029144287,46.89438381195068,99.38911743164063,0.0
412,1.8555635213851929,-0.00470898603089149,48.955433177947995,44.41636199951172,99.90910682678222,0.0
413,1.8543809652328491,-0.00422978743445124,49.91758260726929,44.08241844177246,102.32728385925293,0.0
414,1.8530457466840744,-0.00386819232371631,52.93345546722412,47.429791641235354,105.68874931335449,0.00574748739600181
415,1.8502990514039994,-0.004856312146875952,49.39560418128967,51.18070821762085,109.15147743225097,0.0
416,1.8489257097244263,-0.004391696333186652,45.324786806106566,53.405982971191406,106.72248554229736,0.0
417,1.8490782976150513,-0.0027121396327856526,47.5299147605896,58.764957427978516,98.3268539428711,0.0
418,1.8460646361112594,-0.004268223483813875,50.338827800750735,53.235652923583984,91.19483642578125,0.0
419,1.844386100769043,-0.004213796346448315,51.691697406768796,45.98046455383301,88.67146511077881,0.0
420,1.8415631204843521,-0.005292188469320482,52.31990232467651,43.426130867004396,92.10079326629639,0.0
421,1.8399227857589722,-0.005182122031692363,50.162392902374265,42.29792423248291,94.85890655517576,0.0
422,1.8377864807844162,-0.00528192365309218,49.54517698287964,41.115994548797616,99.8832904815674,0.0
423,1.8372142314910889,-0.00380549884284841,51.90415086746216,45.06532258987427,104.96258354187012,0.0
424,1.8369472026824951,-0.0024925163685110773,46.40903515815735,49.660560607910156,108.58641490936279,0.0
425,1.8356883525848389,-0.00238788469578134,42.42490825653076,56.87362642288208,105.90043659210205,0.0
426,1.8363749980926514,-0.0007442951202392375,50.78937740325928,57.83333396911621,96.39876213073731,0.0
427,1.8370235174894334,0.000264622359099995,49.738095092773435,52.02991561889648,87.69887237548828,0.0
428,1.8350398540496826,-0.0014547370767103876,53.620879077911376,48.51282138824463,86.36725044250488,0.0
429,1.8341624736785889,-0.0017784413794287926,49.94261302947998,45.90781469345093,89.39393844604493,0.0
430,1.8320642799139022,-0.0033389444957719603,51.37057399749756,46.0097674369812,93.5732322692871,0.0
431,1.8274102210998535,-0.006715806329157155,49.857143020629884,44.74725284576416,97.82076988220214,0.0
432,1.826723575592041,-0.005364858545362892,51.82539701461792,44.49023151397705,101.20078277587889,0.0
433,1.8251212924718854,-0.004942264000419473,49.44688634872436,44.517704010009766,103.63767318725586,0.0
434,1.8250068426132198,-0.0032007728237658127,45.30769243240356,47.768009948730466,108.01827888488769,0.02909665554761885
435,1.8241676092147827,-0.0022389241537893673,50.554334449768064,52.2503044128418,105.78207626342774,0.03053352758288382
436,1.8245872259140015,-0.000782618067023525,43.67216124534607,54.24969472885132,100.23130931854249,0.02011620625853537
437,1.824358344078064,-0.0005793491967835693,47.415140342712405,53.80952377319336,90.61583557128907,0.0
438,1.82103945016861,-0.0032524693582672076,53.12515287399292,51.92063446044922,83.12798557281494,0.0
439,1.8219168186187749,-0.0016245138045632725,49.61599531173706,49.111721420288085,80.24765453338622,0.0
440,1.8188650101423263,-0.00392301043320908,52.187423610687254,42.72771701812744,80.05125637054444,0.0
441,1.8150120317935943,-0.00624901994597162,49.51343107223511,35.79975414276123,82.18377227783203,0.0
442,1.8109683394432068,-0.007967200188431844,52.53968257904053,33.797312355041505,86.06157703399658,0.0
443,1.8097857266664505,-0.006613039248622912,51.533577823638915,28.962148666381843,90.04813957214354,0.0
444,1.8102435320615768,-0.003941256215330165,50.07997550964355,31.026862621307373,98.63387088775633,0.0
445,1.8075350522994995,-0.004269546578871045,52.0244197845459,38.07081756591798,103.70261459350586,0.03197039905935524
446,1.8065813690423966,-0.0032671983819454326,46.750916194915774,44.14774227142334,104.84194259643553,0.029096654988825292
447,1.8055894702672959,-0.0028511105454526254,44.237485027313234,45.91941394805908,101.68466415405274,0.03592179641127583
448,1.803834655880928,-0.0035879457078407872,50.59768009185791,46.90293140411377,95.19488201141357,0.007184359245002263
449,1.8007827997207642,-0.00501801059581334,50.79792423248291,47.25030527114868,88.21500587463379,0.00574748739600181
450,1.8007065057754517,-0.0034679719479754076,49.136141300201416,47.908423805236815,83.6754051208496,0.0
451,1.7983413368463517,-0.004371566843474237,52.661782550811765,48.134310722351074,82.66479721069337,0.0
452,1.7975401878356934,-0.0035091445839497623,45.637973117828366,44.291208839416505,83.56764755249023,0.0
453,1.7964720547199249,-0.003008528819191215,49.581196308135986,40.77045230865478,86.97508106231689,0.018679334037005883
454,1.79361093044281,-0.004472202365286599,51.260072994232175,37.96337099075318,91.20074214935303,0.0
455,1.7917417287826538,-0.004679830867098597,48.90293025970459,36.117218017578125,96.09692897796631,0.0
456,1.7915509939193726,-0.00327983698807652,52.14590969085693,33.096459770202635,100.85309410095215,0.0
457,1.789185762405396,-0.00419748169369991,51.827228450775145,36.82478694915771,104.87905464172363,0.0
458,1.7879268765449523,-0.0037177738500758528,47.9993896484375,42.10866937637329,110.06480655670165,0.012931846641004075
459,1.788041326403618,-0.0022120494191767053,42.075701761245725,47.304640197753905,108.54969635009766,0.0
460,1.7873164772987367,-0.001967057162255465,51.22771663665772,53.81501808166504,101.01044654846191,0.0
461,1.7868586778640747,-0.00148698602861252,46.37118463516235,58.656898498535156,92.10701370239256,0.02155307829380034
462,1.787202027440071,-0.00044245876051716,56.394993686676024,54.84737586975098,87.06177043914795,0.0
463,1.7863246202468872,-0.0010399398408480524,50.27655682563782,48.852259159088135,86.21705913543701,0.09303745068609712
464,1.7838069200515747,-0.002905508439289365,45.446886920928954,51.86568946838379,90.8977279663086,0.35814030021429055
465,1.7836924701929093,-0.002267191375722125,51.18620219230652,69.51404123306274,95.5280263900757,0.10076063759624954
466,1.7810602188110352,-0.0039539428253191925,44.66666688919067,59.54944972991943,100.3833553314209,0.014727936685085286
467,1.7803735435009003,-0.00340283968835133,49.629426097869874,42.25213632583618,103.67327499389648,0.0
468,1.777169108390808,-0.00498384863603855,53.752746963500975,35.3772894859314,108.18977947235108,0.010058102943003168
469,1.775910237431526,-0.004537368245655616,52.06166038513184,36.41697120666504,109.48840007781982,0.027300565503537634
470,1.7752235382795334,-0.0036126302788033653,46.67887649536133,39.70696105957031,107.0913299560547,0.0
471,1.774651288986206,-0.002663360309088555,49.59096450805664,46.723443603515626,98.63921356201172,0.0
472,1.77461316883564,-0.00150548205238005,48.81684942245484,46.98046455383301,87.95875110626221,0.0
473,1.770760241150856,-0.004115545045351563,51.811355400085446,43.00366163253784,83.02371883392334,0.0
474,1.7671361088752746,-0.0062334168353117446,50.687423610687254,38.412696838378906,85.26751708984375,0.0
475,1.7642369240522384,-0.00713896827073761,50.97985324859619,37.15811929702759,91.76954250335693,0.0
476,1.7629398494958877,-0.0061426831292919325,51.81929168701172,35.4493293762207,95.95092430114747,0.0
477,1.7624439001083374,-0.0042370081122498505,53.70207557678223,37.289988327026364,101.20552520751953,0.0
478,1.7609180212020874,-0.00356707457685839,52.274114799499515,37.19169616699219,107.41145305633545,0.00574748739600181
479,1.7597735226154327,-0.0030556312587577375,46.095238018035886,42.651405048370364,110.41165733337402,0.0
480,1.757065057754517,-0.004315419413614975,42.80952391624451,44.67704544067382,109.14465255737305,0.035921796225011314
481,1.7548905670642854,-0.004979471641126975,42.431624221801755,44.17582321166992,103.74691333770753,0.0
482,1.755577266216278,-0.0027296548912999676,52.82967023849487,40.35347976684571,92.95006504058838,0.0
483,1.7531357645988463,-0.00379368750145654,52.203296947479245,32.90720319747925,86.66500434875488,0.0
484,1.748176524043083,-0.00681633340427647,52.2625150680542,27.998779773712158,84.74576568603516,0.0
485,1.7357783764600754,-0.01601213340181851,49.72161178588867,16.04334568977356,84.293865776062,0.0
486,1.7242957651615143,-0.022192678833380285,48.99328479766846,10.70390727519989,82.72400436401367,0.0
487,1.720366543531418,-0.019566252361982988,50.17460289001465,12.52380964756012,91.446773147583,0.0
488,1.7131946712732316,-0.019200282730162072,51.3553111076355,9.86996328830719,112.2191722869873,0.0
489,1.7063280165195465,-0.017775057232938683,48.16483507156372,10.355311727523803,117.31771621704101,0.0
490,1.7030854225158687,-0.013326131738722291,49.482295227050784,15.382173299789429,112.17851047515869,0.0
491,1.70266580581665,-0.008557396905962335,50.78937730789185,18.309523630142213,111.57565383911133,0.0
492,1.7017121315002437,-0.005526347411796395,49.25274715423584,24.11843757629395,112.45968418121338,0.0
493,1.6990035891532898,-0.00489957276731725,51.68376111984253,29.283273220062256,108.14508571624756,0.012931846641004075
494,1.6957228183746338,-0.005783078796230215,47.74297914505005,34.884006118774415,100.40000133514404,0.037358668260276284
495,1.6893520921468734,-0.009817938762716905,48.78815670013428,40.25640964508057,90.51884651184082,0.0
496,1.6847361475229263,-0.011168684111908035,50.692308044433595,40.40048942565918,81.69468364715576,0.0
497,1.6829431980848313,-0.00926119559444483,48.859584999084475,36.87423706054688,79.39811763763427,0.0
498,1.6811883449554443,-0.0073541210149414395,50.59951114654541,31.929182529449463,80.54025459289551,0.0
499,1.6790902614593506,-0.0059875511098652625,48.327839088439944,30.94871850013733,84.69273471832275,0.0
500,1.677297258377075,-0.004863764008041427,49.437728595733645,31.17887678146362,91.42820568084717,0.0
501,1.6755424737930298,-0.004637085803551546,50.28144092559815,31.299145555496217,94.87946968078613,0.0
502,1.674207329750061,-0.004143355006817678,52.403540992736815,31.17582483291626,97.78726997375489,0.0
503,1.673444351553917,-0.00329035478061991,51.19474973678589,33.8473744392395,102.44318790435791,0.0
504,1.671346181631088,-0.003851020056754303,53.43406610488891,38.69719200134277,106.3054988861084,0.0
505,1.6688283890485764,-0.004737757099792313,40.683760876068845,42.432843685150154,105.06817455291748,0.0
506,1.6665014028549194,-0.005226240854244625,36.705127901537345,43.27228164672852,104.71204376220706,0.0
507,1.6677602529525757,-0.0024273429618915073,59.665445518493655,43.27228164672852,104.71204376220706,0.0
508,1.6680272817611694,-0.0009554147705784675,52.26068410873413,43.440169239044195,103.39333324432373,0.0
509,1.6663869619369507,-0.0015733957232441226,52.52014636993408,43.793648910522464,99.84599895477295,0.0
510,1.6640980273485184,-0.0029097459133481177,49.653845977783206,32.36629943847656,97.0873794555664,0.0
511,1.6625339418649674,-0.0036691119137685253,50.84310140609741,27.455433082580566,77.18553295135499,0.0
512,1.6607409715652466,-0.00437416687491345,50.18192911148071,26.019536304473878,82.80742301940919,0.0
513,1.660206913948059,-0.0033825272636021945,50.48229532241821,25.444444608688354,97.98613052368164,0.0
514,1.6593295335769653,-0.0028143190080299474,52.64224681854248,26.182539176940917,107.46847381591797,0.00574748739600181
515,1.6570406019687653,-0.003651485865702805,52.18253984451294,30.538461875915527,111.8279411315918,0.0
516,1.6556291580200195,-0.0036360513418912423,43.893772983551024,38.21794967651367,112.28978404998779,0.015805590339004978
517,1.6556291580200195,-0.00243678319966417,48.64407806396484,45.61172161102295,108.84575290679932,0.0
518,1.656468391418457,-0.0007412410917680632,46.55982894897461,50.81868162155152,95.52287349700927,0.0
519,1.655705451965332,-0.0007348832630668425,47.57326021194458,54.847373962402344,83.21763229370117,0.0
520,1.6584139496088028,0.0022335587738779674,52.43833932876587,53.103175258636476,78.99238510131836,0.0
521,1.6606265306472778,0.003701365564484092,49.335775184631345,48.23931541442871,78.69987602233887,0.0
522,1.660512089729309,0.00260236944595811,50.28571424484253,42.80952415466309,80.69693641662597,0.0
523,1.6584902614355088,-0.00015587707287920458,48.45054922103882,39.93650665283203,88.31607971191406,0.0
524,1.6571550369262695,-0.0017779304820578073,50.80525074005127,39.040902328491214,92.94049968719483,0.0
525,1.656315803527832,-0.0026138941349926875,52.4169716835022,36.84859485626221,97.39901161193846,0.0
526,1.6541413098573685,-0.0038412530033383,51.67155075073242,36.85042772293091,102.39315395355223,0.0
527,1.6546753972768784,-0.0020325117278843703,46.32661771774292,41.60928020477295,105.82128067016602,0.0
528,1.6633732169866562,0.006925252340442912,47.800976848602296,44.878511333465575,106.28531112670899,0.0014368718490004526
529,1.6719946891069413,0.01336399107240135,47.09401693344116,47.588523387908936,102.26876869201661,0.00574748739600181
530,1.6730247020721436,0.011196197685785537,50.54700870513916,45.623319911956784,95.6820291519165,0.0
531,1.6727195024490356,0.007372757373377628,52.966422653198244,42.52503128051758,93.1012487411499,0.0
532,1.6725669026374814,0.003524079202907107,49.509768390655516,41.30830307006836,94.17143058776855,0.0
533,1.6724143028259273,0.0005373409865341873,52.87423715591431,39.90171070098877,96.39843368530273,0.0
534,1.6724143028259275,-0.0001823652346502,45.152626037597656,40.07326126098633,97.1659927368164,0.0
