sec,SCL,SCR,BVP,PVA,HR,MOTION
0,0.7710882931947707,0.0010000000474974,58.43833923339844,0.0,30.0,1.239301950670779
1,0.8331934526562691,0.0010000000474974,51.37606840133667,0.0,30.0,0.06717375833541153
2,0.8590578943490982,0.0010000000474974,50.405983257293705,0.0,30.0,0.03358687963336708
3,0.8986938074231148,0.05626253677473867,51.05006093978882,0.0,30.0,0.04741677101701501
4,0.9663685977458953,0.1540452308952809,50.53357725143432,0.0,30.0,0.059450572542846206
5,1.0022660031914694,0.10873757340013983,49.53418807983399,1.20695972442627,34.89473648071289,0.001436871849000455
6,1.0176778435707063,0.08676037620753052,50.85103788375854,16.260683917999284,77.3098316192627,0.033048052527010464
7,1.0475096881389623,0.07925741542130713,51.49999990463257,16.42124500274661,72.65371131896975,0.027300565131008647
8,1.0622730106115363,0.058376751374453306,46.547008419036864,30.01098785400388,75.92464733123782,0.02442682199180128
9,1.089548936486244,0.057259522192180154,52.360805892944335,32.9426116943359,76.6773147583008,0.0
10,1.1184652358293519,0.06283586844801904,47.46886434555053,37.88766670227048,78.4578666687012,0.007184359245002275
11,1.1266289353370662,0.04793100450187922,48.88644680976868,43.07203826904296,72.58141937255864,0.03915475830435756
12,1.1333429962396626,0.035345240030437715,51.79548215866089,47.70329761505131,68.0677240371704,0.020295814983546746
13,1.1384166836738594,0.02441790732555091,50.74847383499146,49.66422557830814,65.71120548248287,0.11908075436949736
14,1.1469618827104586,0.019314664462581278,48.58546981811524,39.85592355728146,67.02097225189208,0.05855252761393788
15,1.142536705732347,0.006779622809699492,51.05982923507691,26.061049938201887,67.4630687713623,0.013650282472372061
16,1.1292993009090422,-0.008726073859725136,48.67399272918702,26.2271060943604,65.75760288238523,0.007184359245002275
17,1.1294518709182737,-0.00826614811085162,49.73992671966555,26.379731178283727,64.76938247680665,0.024426821433007735
18,1.1288033694028852,-0.007699214376043488,49.63736257553101,26.327228403091418,64.24700183868408,0.020475424267351643
19,1.1242255896329874,-0.009078461420722276,51.64346771240234,24.863858795166035,68.41813926696776,0.0
20,1.1139637410640697,-0.013915083743631842,50.015262699127206,27.71062211990361,75.79324226379391,0.0
21,1.106868198513982,-0.015950884623453024,49.05067167282105,30.612942504882824,77.46109619140626,0.015805590339005006
22,1.105494859814641,-0.012678648589644579,47.93406610488893,31.916971778869595,71.80952835083008,0.00287374369800091
23,1.1190374404191956,0.004516050504753363,48.16117219924927,31.958485221862805,66.96347198486329,0.0
24,1.122432628273963,0.008592615960515082,50.88827848434449,28.420635223388654,62.6929126739502,0.0
25,1.104350408911702,-0.008347737333679092,49.42063465118408,23.377899265289333,64.14542217254642,0.01149497479200364
26,1.0976363569498024,-0.01295462325215339,51.48473720550537,22.161171913146998,67.5374870300293,0.0
27,1.1075548619031879,-0.0023445681406883325,49.27228307724,25.542124938964868,66.90440540313719,0.0
28,1.1235007762908926,0.012748125602956859,50.78815622329713,26.996947479248057,63.77839355468747,0.0
29,1.134411144256592,0.02238220483995974,45.45360193252564,25.2258853912354,69.5249099731445,0.01149497479200364
30,1.1373866796493537,0.020850221207365394,49.367521667480474,26.648962450027454,72.77370853424075,0.0
31,1.1415829896926892,0.017056738724932068,52.216117382049575,30.902319765090944,65.6566656112671,0.024426821433007735
32,1.1540955871343639,0.020543762343004347,51.532356452941904,27.709401750564574,62.80076274871823,0.024426821433007735
33,1.1777474313974372,0.034186567459255454,49.2655673980713,25.133699035644526,65.80724964141844,0.0
34,1.1930066734552356,0.03791561513207851,49.77289371490479,26.559828281402588,67.81956005096434,0.012931846641004094
35,1.183927440643307,0.018174848018679756,48.719169616699226,26.553113603591935,68.29089889526368,0.0
36,1.171224093437197,-0.0021756955655291626,49.48595848083497,26.16849899291991,67.44139881134035,0.01149497479200364
37,1.1574907660484344,-0.01935496602673083,48.83394374847413,27.367521858215305,65.87290019989015,0.03951397594064476
38,1.147267049551012,-0.02670930381864311,51.49877910614015,26.49755816459656,64.66433944702148,0.0
39,1.160122993588451,-0.00671042980393394,48.731379699707034,23.467643976211516,72.89262657165526,0.02047542408108713
40,1.1793115019798246,0.016243366501294074,47.478022098541274,25.04517745971679,79.90951805114749,0.03448492437601092
41,1.190488898754117,0.02576754610054193,50.07753372192383,25.5921859741211,81.4111251831055,0.01724246218800546
42,1.1884670406579938,0.01836642003618181,49.884004783630374,25.99694795608521,80.25401897430422,0.0
43,1.1652348399162318,-0.010123342003498684,51.289377498626706,23.170940399169925,74.13582916259767,0.0
44,1.1463133692741412,-0.029508207598701125,50.079975605010986,19.77289333343508,66.69979209899904,0.012931846641004094
45,1.1407437413930903,-0.029572500754147767,48.67399272918702,20.968253469467168,63.331429290771474,0.0
46,1.1360515177249915,-0.02476358492858708,51.64468851089479,20.13430957794191,64.5968744277954,0.0
47,1.2020859569311146,0.04806246860825926,50.543956279754646,20.19230775833132,71.3198369979858,0.004310615547001365
48,1.359179961681366,0.18348663188517095,48.96092777252198,22.48351602554323,73.71415977478028,0.00574748739600182
49,1.4054154992103594,0.18202048763632783,48.00976819992065,23.782051181793218,73.02866859436037,0.02298994958400728
50,1.401600691676141,0.12579114008694886,48.80341863632203,23.23687467575073,71.45120544433597,0.04687794446945193
51,1.3834040403366081,0.056720777787268174,50.38766784667968,23.189255523681602,67.92050170898438,0.0
52,1.3668095976114245,-0.0032896426528168377,51.23626365661621,21.93345503807064,65.01631584167482,0.030174308829009556
53,1.3617358595132791,-0.023837609775364383,49.792429828643805,20.946275186538717,66.13249053955077,0.014368718676269066
54,1.3776818126440034,-0.0029334579856367697,48.80708208084107,23.3943824768066,67.0016784667969,0.0
55,1.3993881165981303,0.021743041835725313,51.35653228759766,27.797314405441313,64.43819675445555,0.020116206258535402
56,1.3933606922626498,0.014634241641033432,48.83638601303102,26.47619080543517,63.99158134460447,0.0
57,1.3747825592756253,-0.005867951952677673,49.350427341461184,25.2014656066895,65.91275634765628,0.02765978351235392
58,1.363376253843304,-0.01822647876106202,49.19352884292603,25.443224048614518,66.98804931640626,0.02622291147708895
59,1.3591036736965143,-0.02119007250294088,48.91819295883179,24.198413467407228,68.42207469940188,0.0
60,1.3551362514495806,-0.018516106787137672,47.88705787658692,24.207570266723682,70.45148696899415,0.0
61,1.3597140282392464,-0.005417022980691388,51.532967472076415,27.21001157760623,71.48685817718504,0.01724246218800546
62,1.3826410710811605,0.02011509477160871,50.66422452926636,28.275946903228732,67.62754993438719,0.007184359245002275
63,1.400456252694131,0.03299914444796742,48.890109920501715,24.8229551315308,65.90774345397945,0.00287374369800091
64,1.4070940405130405,0.03091435441747308,48.96275939941407,23.525640535354626,65.41674499511714,0.0
65,1.407895165681841,0.021561300521716474,49.67643461227418,21.73015918731687,65.15372962951659,0.0
66,1.4087725877761863,0.011976097966544325,50.45848598480226,19.5909647464752,65.86324615478517,0.00574748739600182
67,1.4146473675966291,0.00978769757784901,50.72405405044556,20.05372428894044,66.86906280517582,0.03412570636719467
68,1.4234595626592674,0.013258226611651497,50.10012216567993,21.275945806503266,67.44451541900636,0.00574748739600182
69,1.4273125350475353,0.012975522154010849,51.81501836776734,20.19352912902831,69.52374897003173,0.09070253372192379
70,1.4471495717763871,0.027197869215160597,48.88156309127808,21.68131895065304,71.4204711914063,0.05011090561747551
71,1.4731665998697276,0.04258497077971695,48.21062269210816,23.07692298889158,71.81575012207034,0.02442682161927225
72,1.469237345457076,0.026141693093813957,48.61050062179565,21.46520118713376,71.03802776336673,0.0
73,1.4489425331354107,-0.0020201148086925877,49.738095378875734,20.10744762420654,70.73399429321292,0.0
74,1.4376125365495636,-0.016691241203807293,50.68742370605469,22.681319046020498,68.15501708984378,0.00574748739600182
75,1.432500693202022,-0.021766027435660366,52.64041538238526,23.69841308593749,66.09591026306154,0.00574748739600182
76,1.4258629232645075,-0.02184669622220099,49.09401693344117,23.70451793670652,70.1228691101074,0.004310615547001365
77,1.4383373558521273,-0.00047094002657104754,47.58302812576295,25.579975271224946,73.78354454040527,0.0
78,1.4800714164972306,0.041212621517479404,48.423687458038344,26.69108619689944,73.81714782714843,0.0
79,1.506508082151416,0.05701118623837827,51.439560222625744,26.993895149231,72.66672744750973,0.0
80,1.5172658473253295,0.05229308763518927,47.71733808517457,23.727716255188003,72.86417579650879,0.012931846641004094
81,1.5236365795135451,0.04025318203493948,52.27838850021364,23.782661056518513,72.63874092102054,0.015805590339005006
82,1.5171895533800153,0.01536808978999032,49.52197818756103,24.7130645751953,69.84708766937254,0.02155307792127134
83,1.5014343768358258,-0.010484226899416171,48.651403999328615,23.056165504455556,73.24861545562743,0.012931846827268612
84,1.4886928766965877,-0.023087308043614037,46.5042730331421,25.6324791908264,77.86288490295412,0.016164808720350275
85,1.4797662466764452,-0.026236124895513063,52.39194135665893,29.18192958831785,75.83222198486325,0.026043302379548567
86,1.474311032891273,-0.022888470673933636,50.58852262496949,29.723443365097033,70.9312288284302,0.018858942948281776
87,1.4907528877258316,0.002049623237689955,49.73809509277344,25.264957809448248,68.97466735839842,0.0
88,1.531228068470953,0.041890292707830686,49.755189037323,24.8034192085266,68.42317543029787,0.0
89,1.5321436166763267,0.03460950953885913,47.45299119949341,24.672161340713508,68.1277099609375,0.0
90,1.5232169240713127,0.01738312568049876,48.52930364608765,21.87545814514158,70.85823974609374,0.012931846641004094
91,1.5443891674280141,0.02742789699696005,50.938949775695804,22.155066871643026,73.10987873077389,0.0
92,1.5554139763116825,0.023644051305018385,50.65567770004273,24.586080074310313,71.38375434875488,0.0
93,1.5349665880203212,-0.0035504465966368997,50.36446895599366,21.880341529846174,68.33033046722412,0.0
94,1.5311899274587593,-0.006150908852578132,49.346764469146734,21.05982875823974,68.31502227783201,0.0
95,1.5536973088979709,0.01294867648975924,49.59523792266846,21.66361413002011,67.35672397613523,0.0
96,1.5651417583227158,0.01890522961039098,50.09462747573854,20.662392854690562,68.36746177673342,0.010776539146900185
97,1.5913113802671464,0.040273964172229185,50.88705749511719,20.968863916397062,72.29234180450439,0.07417851015925411
98,1.609355446696286,0.046894465759396584,47.39987792968749,23.3699626922607,75.4242630004883,0.040591629780828975
99,1.5969191581010855,0.01930983251077122,50.21855936050416,23.534797954559295,75.71603927612306,0.04597989898175003
100,1.5726569443941125,-0.013227912671572967,49.999999904632574,24.282051372528105,75.77853717803956,0.0
101,1.5553758323192586,-0.03123490703292194,49.64224662780762,23.374847412109382,68.99321956634523,0.015805590339005006
102,1.5414899170398684,-0.03931340016424659,51.28754615783693,21.987789726257354,68.55516128540036,0.007184359245002275
103,1.531571412086483,-0.03582197255454961,50.13492069244385,23.100733137130767,77.46617164611817,0.00574748739600182
104,1.5341654717922173,-0.018665215279907006,46.387667751312264,25.69047622680666,83.37602539062502,0.03735866807401183
105,1.536530619859692,-0.0065173668495844645,50.56349201202393,26.816850137710606,82.90066509246826,0.01436871886253358
106,1.5291680723428696,-0.008113363699521835,39.93223462104798,23.731379318237302,81.96928253173823,0.02837821897119285
107,1.4331110477447508,-0.09233065787702797,51.49755787849426,21.9291820526123,82.4742279052734,0.06322236135602
108,1.3346125781536122,-0.15838040411472326,55.69291820526124,21.9291820526123,82.4742279052734,0.034125706739723705
109,1.3381221950054205,-0.1149327222257853,53.65201454162599,21.365079593658443,82.82394218444821,0.01724246218800546
110,1.3660084843635532,-0.050027885288000104,49.30463991165162,19.02564115524291,85.35278930664063,0.0
111,1.385807374119758,0.0007194616922788475,50.472527217865,20.137361955642703,85.98811855316163,0.03735866826027635
112,1.3815347850322712,0.01749128575902433,48.6709403038025,22.853480529785166,83.74316596984865,0.0
113,1.3809625715017309,0.015618623909540474,49.87179460525513,25.808302021026645,71.71786899566646,0.0
114,1.3795129507780062,0.0044622334324230595,50.5537239074707,29.3235649108887,66.397102355957,0.04005280304700137
115,1.3723410964012126,-0.007690162281505731,48.98962144851686,28.76984119415287,64.9762372970581,0.02765978351235392
116,1.3687932521104786,-0.009534290246665444,49.36935281753541,26.522588443756128,67.79328994750975,0.02909665517508986
117,1.3681828975677464,-0.006994976312853356,51.774725341796874,24.478021812439003,76.67313785552979,0.053523476980626615
118,1.3658940643072102,-0.006621332524809942,51.306471633911144,26.137972736358684,85.70479259490966,0.07741146944463248
119,1.3648640543222397,-0.004565979039762127,47.57142877578735,31.230159044265775,91.64790153503415,0.02245112191885707
120,1.36158329248428,-0.0052907120320014175,48.40354108810424,33.1379737854004,92.8792572021484,0.0
121,1.3605914115905724,-0.004397405876079525,49.0561658859253,33.54456748962403,90.48928298950192,0.0
122,1.359141826629635,-0.004164164414396462,49.233821868896484,33.88888931274417,82.36814804077149,0.012931846641004094
123,1.3561662614345509,-0.005259992124047082,52.14468889236451,33.66300354003911,76.10961914062503,0.0
124,1.3560899615287738,-0.0033359374225255577,48.4175826072693,32.24053707122801,75.94724922180175,0.0
125,1.3619266211986507,0.0033535795664647225,50.00732612609864,30.272283840179426,78.06331539154053,0.018679334037005915
126,1.3621936678886377,0.003225714270956757,51.80097675323486,26.87728953361513,83.66656188964846,0.0
127,1.3607058525085411,0.0014946665243769151,47.41941404342653,28.534798622131355,86.65145111083986,0.021553077735006827
128,1.357615903019901,-0.0019249818149546325,49.54395608901977,29.4749698638916,87.5273513793945,0.027300565131008647
129,1.3529236465692474,-0.0065790912834926985,48.03479852676393,30.84371237754821,82.6550136566162,0.0
130,1.3541062533855395,-0.004096762651170105,49.197802257537845,30.58363885879519,73.2329471588135,0.0
131,1.3774910718202575,0.01899777555372565,49.81868124008179,29.42796125411988,68.09625186920168,0.030174308829009556
132,1.4006088495254527,0.036094144359231015,49.441391849517814,29.714285659790015,65.69924392700196,0.010058102943003185
133,1.3938184618949894,0.021379722189158214,55.52686166763307,25.894383382797237,67.74923095703127,0.25899614430963985
134,1.3848918080329888,0.0058788917318451876,45.2405372619629,25.34187994003296,74.1317440032959,0.121056449599564
135,1.401295515894891,0.014724776195362188,45.755189228057866,27.93711838722229,78.21743640899656,0.0770522525534034
136,1.436658838391303,0.03887125374749302,51.529914665222165,28.547008514404304,78.7918548583984,0.04597989935427906
137,1.4397106945514657,0.03187828543595969,52.29304027557373,28.178266334533703,77.87311630249022,0.023349168151617066
138,1.4205984711647068,0.006458732642931865,48.21916971206665,23.610501003265394,79.05707111358643,0.0
139,1.4027832955122008,-0.01580783150857314,51.035408878326415,23.85958452224733,85.43956375122072,0.019756988249719158
140,1.4002273678779613,-0.0203045317903161,49.420024490356454,25.130037355422967,87.36197967529301,0.01724246218800546
141,1.4186529099941285,0.00047776666033314257,48.295482349395755,26.568986892700202,82.57419967651364,0.018679334037005915
142,1.434217366576196,0.018658015481196347,51.60500621795654,26.24175834655759,80.82399978637694,0.024067603610456005
143,1.4259773522615473,0.010294296301435663,49.18742361068726,26.95054864883421,82.668643951416,0.0
144,1.412701809406283,-0.004576335092860935,50.79670324325563,26.97741179466244,84.32279548645023,0.025863693654537223
145,1.406445515155794,-0.012658416177146145,49.62881546020509,28.125762939453125,85.56179046630862,0.0
146,1.4054155349731463,-0.013204474677331749,49.04151391983032,29.0598297119141,85.8369064331055,0.0
147,1.4094973534345647,-0.0048705403532948825,49.11782665252686,29.987790679931663,83.95650482177737,0.012572629004716885
148,1.4123203217983271,0.0019206214521545577,50.35103788375856,30.982905673980703,79.69372539520263,0.009339667111635214
149,1.4072084873914739,-0.0014221016899682326,51.39316234588624,30.923077392578126,81.47895660400391,0.0
150,1.406178495287897,-0.001844648661790385,45.57387056350709,33.59829120635988,85.17006816864016,0.00574748739600182
151,1.4200643986463581,0.010798934954800632,47.43833932876588,36.095239257812516,82.71140098571775,0.00790279507637024
152,1.4397488385438897,0.02581291371025145,51.031746673583996,36.788155746460006,77.20826797485354,0.019756988249719158
153,1.4511551201343504,0.030215955991297956,49.96337003707886,31.962149572372464,74.32382907867428,0.0
154,1.4458906799554787,0.016993694170378153,50.89011001586915,31.95054945945737,73.30436553955073,0.012931846827268612
155,1.430669575929644,-0.00468042435750247,49.252136611938475,29.79548320770263,73.23070220947261,0.0287374369800091
156,1.4207510560750995,-0.017124092101585116,52.68192968368531,28.44932785034178,77.7615139007568,0.03017430901527407
157,1.4830088198184965,0.04234912400133907,48.028693294525155,30.866910934448196,81.3008117675781,0.0
158,1.5745643496513377,0.11616304200142627,49.88217334747315,31.483516216278048,81.78004646301267,0.0
159,1.5936384022235903,0.10778217352926736,47.88400440216065,33.449327850341795,81.2634780883789,0.0
160,1.5926083952188523,0.07586347246542575,47.51037845611573,33.223444080352785,77.7380167007446,0.010058102943003185
161,1.5915402173996,0.041265740804374215,52.1092800140381,33.0347990036011,76.18445491790774,0.00574748739600182
162,1.5880687773227717,0.008447834740854891,50.4456654548645,33.1507941246033,73.67391147613526,0.01149497479200364
163,1.579714348912241,-0.009795015654526628,48.4865692138672,31.77228388786316,72.94399833679202,0.01149497479200364
164,1.5714743524789818,-0.015519310045056028,48.314407539367686,32.650183725357074,73.09053649902346,0.012931846641004094
165,1.5667821228504182,-0.015244985464960328,49.58241767883301,34.27106285095219,71.40685806274413,0.0287374369800091
166,1.563310632109642,-0.013370995409786687,51.965812015533444,31.41758246421813,70.47333011627197,0.0
167,1.563272511959076,-0.0078205840931332,47.37240562438966,31.173381948471047,75.07425746917724,0.04849442616105083
168,1.5773110121488585,0.009079847357315858,50.58730163574221,31.362027549743647,77.61663761138912,0.033407270908355734
169,1.5860469222068811,0.016220850637182607,49.78449363708496,30.547008609771723,80.5054454803467,0.0
170,1.5761665701866163,0.0036800197325646752,46.525030612945564,32.12759351730344,81.62678241729739,0.01724246218800546
171,1.5636158376932143,-0.009746094990987303,52.56043968200684,32.98229560852052,82.02686862945556,0.018679334037005915
172,1.5540787965059268,-0.018481686431914588,50.81868143081665,33.27167158126831,79.01719322204588,0.0
173,1.5527817636728274,-0.016312249365728358,47.13553133010864,31.82661743164063,78.05906372070312,0.04597989916801454
174,1.5689947307109837,0.004525220683717628,52.25152626037599,33.36019554138187,79.60663681030276,0.018679334037005915
175,1.5757851094007507,0.012823131307959562,47.7313796043396,32.93895015716552,81.24008789062499,0.0
176,1.5647221356630325,0.00153472721431169,47.04273509979249,33.19291896820066,82.45834159851074,0.01975698806345464
177,1.5528580516576753,-0.010319547704420975,52.311355209350594,33.45909519195557,82.1402801513672,0.021553077735006827
178,1.54248177707195,-0.01973924138583245,51.075701999664304,31.935896682739262,76.50930118560788,0.01149497479200364
179,1.5352717727422678,-0.02267805626615884,48.300365924835205,30.357752990722627,74.9301109313965,0.01634441763162614
180,1.529435089230533,-0.020055739535018824,51.32906017303467,31.291208314895602,76.04672260284426,0.07759108003228904
181,1.5240180701017338,-0.016628292272798727,50.17155055999756,31.026251983642577,77.9195343017578,0.01436871849000455
182,1.5182958424091384,-0.014953821850940602,45.690476131439205,31.694750881195052,82.31970748901368,0.025863693282008188
183,1.5128788292408029,-0.013932716008275762,51.57326030731201,36.25152730941775,85.84921646118165,0.03215000778436662
184,1.5137562394142192,-0.007901286461856189,49.50671548843384,33.79242935180664,84.11971130371094,0.021553078107535855
185,1.5164647608995474,-0.001634560733509705,48.26556777954103,31.608059024810768,80.76554641723635,0.027300565503537676
186,1.5449613869190193,0.026570695103146143,51.75824146270752,32.87912259101869,80.8631258010864,0.0
187,1.585512858629229,0.05803973600268366,49.53296699523927,34.06959819793702,80.42378768920898,0.0
188,1.613055819272994,0.0685106547549367,48.930402851104745,33.171551227569566,78.35769748687743,0.02945587337017061
189,1.6272469252347919,0.061173425894230624,51.23565311431885,30.645298814773582,81.79456157684328,0.1700897054746749
190,1.6436124742031086,0.05354380225762726,51.55372381210327,30.72222199440005,89.41785545349121,0.16272573433816434
191,1.649678027629852,0.035380033962428566,45.36752099990845,32.573260068893426,95.39079704284666,0.08944527134299281
192,1.6374324858188611,0.007616485018661462,42.44871821403504,37.16971817016599,96.6652572631836,0.07597459815442562
193,1.6220587581396066,-0.01360571871045975,51.199023056030285,37.5824165344238,96.6183547973633,0.030174308829009556
194,1.6114536046981804,-0.023262828914448613,52.86874237060548,36.53479909896846,91.78124217987062,0.004310615547001365
195,1.6019165605306669,-0.027137590711936343,52.72405376434326,19.075701904296906,78.60732498168947,0.02047542408108713
196,1.5933332324028047,-0.025397984730079752,52.15689878463745,16.985348558425947,78.48171386718748,0.029455873370170617
197,1.5879543572664288,-0.020110966451466074,50.20634899139405,19.77533569335938,85.8204315185547,0.04202850218862298
198,1.5824609965086003,-0.016793647920712813,49.42918195724488,24.304639959335308,90.95012416839604,0.02047542408108712
199,1.5736488074064265,-0.017962273629382235,46.005494117736816,26.390720462799102,93.58388843536379,0.02855782806873323
200,1.5680028885602957,-0.01627670768648384,51.44261312484741,26.2478632450104,92.80164699554442,0.0
201,1.5822702646255513,0.0029475949755578728,49.61965799331665,25.5189247131348,94.29604015350343,0.025863693282008188
202,1.6197317451238618,0.03829954797402026,50.2857144355774,28.691086816787724,95.40884304046634,0.03089274466037752
203,1.6395687907934176,0.04870103076100352,48.020757007598874,30.565323162078887,94.36619796752929,0.027480174042284505
204,1.629421362280843,0.026980718947015713,51.711843872070325,32.98779048919678,90.60082969665523,0.025863693282008188
205,1.6105762004852298,-0.001749958342043095,48.459096622467044,34.08547058105466,85.41939697265623,0.01867933422327043
206,1.59691916406155,-0.021468367055058474,50.1391942024231,36.16300439834593,79.19476127624515,0.00287374369800091
207,1.5978728532791173,-0.019391521898796768,50.17643461227417,33.493284225463896,74.67930335998535,0.010058102943003185
208,1.6373561769723874,0.023453094688011326,52.891330814361574,32.974358749389644,78.02220973968508,0.01724246218800546
209,1.6639835894107833,0.04631467433646321,45.56349201202393,35.042735767364505,80.48362979888918,0.03017430901527406
210,1.6483046948909756,0.023138083564117562,50.299755859375004,35.39987726211548,81.67509307861327,0.0
211,1.6414761811494816,0.008564644353464202,44.25335798263551,34.4566535949707,81.6882247924805,0.0
212,1.6706213474273703,0.025649917637929325,52.5006103515625,34.42002372741699,81.68266754150393,0.0
213,1.6790139466524157,0.021456195740029216,51.746642112731934,31.54090423583985,80.29398193359371,0.0
214,1.6704687595367453,0.00931847209576515,50.58424901962281,25.60439586639405,76.15565490722655,0.021553077735006827
215,1.7001480162143703,0.033947251224890354,48.785103797912605,26.47130656242369,74.53135585784909,0.04346537422388795
216,1.7223883628845194,0.0415008316747844,52.335775089263926,29.65201420783999,74.76441612243653,0.025863693654537223
217,1.7031235754489888,0.01039486072550061,48.73260097503663,30.256410121917686,75.58850402832036,0.030533527582883857
218,1.679967647790912,-0.015158695238642383,49.18437080383301,31.840049362182604,75.87264633178714,0.001436871849000455
219,1.667378771305086,-0.027701976802200066,48.68376073837281,34.4737497329712,74.49002265930174,0.010058102943003185
220,1.6607791483402263,-0.030561924865469343,47.54395599365235,33.19963254928589,72.07539005279543,0.0
221,1.656125056743622,-0.023782278923317787,52.903540802001956,33.71428527832029,71.15831832885739,0.001436871849000455
222,1.65318763256073,-0.014776975777931519,50.90476169586183,37.4316243171692,70.70893268585203,0.036819841153919716
223,1.6555146843194966,-0.005043053472400022,46.27838859558106,36.202685546875,72.45520935058595,0.014727936685085308
224,1.664403218030931,0.006372263032244476,51.065323352813714,37.79426097869873,76.99064102172849,0.0
225,1.6697057873010652,0.010973109677433947,50.3803421020508,38.33699569702147,79.8270790100098,0.0
226,1.6778313577175168,0.016040019411593682,45.85042753219605,36.330891036987325,80.81833076477054,0.02298994958400728
227,1.6787087529897717,0.011958489904645823,50.40659322738648,34.50427494049069,81.26239833831785,0.0
228,1.6694006383419058,-0.0014829400286544,50.772893810272215,34.0659355163574,80.34601783752444,0.0
229,1.6613513588905344,-0.010558372945524735,49.631257724761966,30.476190805435188,75.6593183517456,0.0
230,1.6527298778295516,-0.017115013068541886,50.168497848510754,27.41636142730715,75.66493587493895,0.010058102943003185
231,1.6450621008872979,-0.019885081937536592,51.74542121887208,29.697191619873045,78.70333843231201,0.00862123109400273
232,1.6369365572929364,-0.020196127332746977,48.85347957611084,29.9908423423767,82.07958126068114,0.024426821433007735
233,1.6336557924747446,-0.015597907383926204,50.02564105987549,32.21367425918581,86.54150714874267,0.047596380300819904
234,1.651165810227394,0.007014722003077625,46.59340658187867,32.97313671112062,87.6490077972412,0.0
235,1.685918754339222,0.039109548740088936,49.74969482421876,33.51648235321045,85.2175159454346,0.01149497479200364
236,1.687101349234585,0.032343949377536776,50.69780235290528,30.815628862380947,80.51542224884034,0.007184359245002275
237,1.7001861572265624,0.035602097120136025,47.99450531005859,30.155066823959334,80.45583114624023,0.078309515863657
238,1.7336039364337914,0.05214056763797996,52.31440811157228,29.835164356231665,82.23065109252927,0.03197039887309076
239,1.7249443084001523,0.024762038537301106,48.36141672134401,29.415140295028703,82.74301548004154,0.022989949770271793
240,1.697019866108895,-0.011182532283419266,47.62942619323731,30.4682544708252,82.57642364501955,0.0
241,1.6792809873819383,-0.028586444351822143,48.628205204010015,34.94627571105959,78.78986206054691,0.0
242,1.6678365528583545,-0.03660909524187445,53.03174619674684,37.23992586135863,72.74908199310306,0.026941347867250463
243,1.6607028484344493,-0.032776816654950386,50.53113565444947,33.461539745330775,71.66910839080808,0.0653776690363884
244,1.6544465541839604,-0.02398431194014847,48.571428680419935,33.32600870132444,79.9238874435425,0.01867933422327043
245,1.6463591247797005,-0.020065435767173765,45.79304056167604,33.8461532592773,85.62461471557619,0.03017430901527407
246,1.6486098617315288,-0.009657786099705815,48.97435874938965,35.053724765777574,85.15337810516357,0.0
247,1.6533783674240112,-0.0005554210627451574,52.28998756408693,25.275946760177646,84.021475982666,0.04741677101701501
248,1.665013569593431,0.012408204036182705,48.39316244125367,24.75457878112794,86.4597652435303,0.01724246218800546
249,1.6972106099128719,0.039921158971264956,48.011599445343016,27.03785057067872,87.10805435180664,0.020116206072270885
250,1.7061372965574226,0.03791274395771325,50.17277145385742,28.755799150466892,80.90041503906254,0.015805590339005006
251,1.690038761496547,0.011404989783477495,51.19352836608888,27.468253326416043,73.33165798187261,0.009698885120451457
252,1.6762672901153592,-0.008568452646431952,51.39133110046388,25.170940637588537,69.64855861663821,0.01796089839190246
253,1.6663869231939334,-0.02123300358653068,51.00366306304933,24.987179040908796,68.36161289215092,0.0
254,1.658452099561692,-0.025326245417818426,48.35897455215454,24.854090642929062,68.08931198120118,0.018679334037005915
255,1.6591387867927558,-0.015319707826711233,50.28205108642579,27.029304218292253,74.26141967773435,0.014368718676269066
256,1.6607409715652472,-0.006089400092605455,47.84371213912964,28.208790969848643,79.0783718109131,0.00718435943126679
257,1.6525009870529175,-0.009317235706839698,48.349206638336184,29.12087869644164,81.0485107421875,0.0337664891034365
258,1.6418958097696295,-0.015069754840806127,51.74847354888916,26.020146560668927,81.94937210083006,0.02298994958400728
259,1.6332361966371516,-0.018741015531122677,48.700854873657235,26.105005264282205,82.191780090332,0.0
260,1.6311380535364126,-0.015501488768495613,49.5115993499756,26.176434373855578,82.22842292785641,0.0
261,1.6414380252361283,-0.00013614410927402995,50.358974361419676,23.9951168060303,82.06856842041012,0.0
262,1.653759878873825,0.013905048090964555,52.39926776885987,22.51159887313841,82.83362693786623,0.0
263,1.6515854328870774,0.01040508565492926,46.75274734497071,24.34798517227171,86.21440429687502,0.0
264,1.6424298852682102,-0.000786602063089965,48.19597053527833,27.37606816291808,82.82026958465573,0.0
265,1.6325113624334313,-0.011829370621126137,49.061660861969,28.283271789550753,75.22528533935548,0.0
266,1.6325495243072488,-0.010874046586104658,49.58485956192017,27.053723287582397,69.87311096191411,0.0
267,1.6616946905851375,0.018833878177974824,51.10683746337891,26.691085815429698,66.66823825836182,0.0
268,1.6891994953155554,0.04162953002378345,51.58180685043335,25.05189270973207,65.89270801544187,0.0
269,1.7072054237127265,0.04934304188936949,48.428571414947506,23.744199991226207,72.36269817352296,0.0
270,1.7073961675167049,0.035068090353161094,47.6086693763733,26.03479809761048,78.68247127532956,0.0
271,1.7032380431890446,0.016316205915063626,52.7155065536499,28.29609246253968,77.7198179244995,0.004310615547001365
272,1.7174291163682913,0.0176582888001576,51.15140438079835,28.86935234069822,74.25256042480466,0.0
273,1.7249824345111828,0.016155515634454776,49.44200277328491,28.802197360992448,72.89431266784669,0.01149497479200364
274,1.7235328108072263,0.009577304008416799,48.767399501800554,29.455433130264293,72.29828701019287,0.0
275,1.7374187469482423,0.019751902902498838,49.11721572875976,28.344322586059548,71.9943267822266,0.0
276,1.76530503034592,0.03789454149082301,51.58180685043335,27.408425474166904,75.15021877288818,0.0
277,1.7709128260612528,0.031678047077730274,48.37851028442383,28.635531425476096,78.85568504333499,0.00574748739600182
278,1.810892051458357,0.05876632044091823,48.83211250305176,30.018315172195436,79.16943397521973,0.01724246218800546
279,1.8668553739786145,0.09141875486820938,51.70695962905885,27.29731402397156,77.34389820098875,0.0
280,1.9109927684068677,0.10341060403734448,49.32539682388307,27.2161178588867,77.05892181396486,0.0
281,1.954100155830384,0.11030579637736082,47.86691074371338,29.089133262634267,76.9983549118042,0.01149497479200364
282,2.0007553309202195,0.115603294968605,47.611111164093025,28.98595814704894,76.9724197387695,0.012572629004716885
283,2.0679723381996147,0.1331325989216566,51.21428556442261,29.86813201904293,76.89422531127927,0.060348618030548126
284,2.1068453192710903,0.12187083065509792,51.118437480926524,29.398656368255587,76.04608535766604,0.054421521537005926
285,2.129505288600922,0.09913045298308135,47.39621505737306,28.72527437210082,77.88147583007813,0.001436871849000455
286,2.1588412284851057,0.08573506250977518,49.43101358413697,30.11049981117252,80.40188541412353,0.0
287,2.1336252987384787,0.025702027265288068,52.8943835258484,33.14285578727723,75.64931087493895,0.025863693468272702
288,2.0891827225685122,-0.03385619611945,47.42490863800048,31.69108667373655,74.38825988769536,0.02298994958400728
289,2.0619449317455265,-0.05748528335243467,51.127594757080075,31.307081508636475,79.99762821197513,0.0
290,2.050920170545574,-0.056292840931564614,48.717337894439694,32.976800918579094,83.8869674682617,0.0
291,2.0637760579586004,-0.025001611541665626,48.54456672668458,33.67094020843506,83.58155555725095,0.015087154507637035
292,2.090479755401612,0.015972142052487474,51.77228364944458,32.16178350448607,85.57614784240724,0.03412570729851726
293,2.0787301242351526,0.008726941739223549,49.193528461456296,33.48229598999028,91.14013748168946,0.0
294,2.051416063308713,-0.016672322934027765,48.309523582458496,34.12698574066161,92.43258476257321,0.029096655547618887
295,2.031617188453678,-0.03352897637523715,51.17704553604126,32.58852338790895,91.23868465423581,0.01149497479200364
296,2.0150990128517168,-0.04379268335178499,48.738705635070815,32.87545909881591,91.95092906951902,0.007184359245002275
297,2.001365688443184,-0.043400547001510886,48.50244216918945,34.930403709411635,88.49244499206544,0.024426821433007735
298,1.990913125872611,-0.035530028957873584,52.61050090789796,36.3266179084778,81.37973861694336,0.03448492437601092
299,1.9801934778690318,-0.03048807396553458,47.84188041687012,34.13675193786622,83.28966178894042,0.06142627205699687
300,1.9741660356521575,-0.0289251762442291,49.06593418121338,34.700855255127,85.6531066894531,0.0395139753818512
