sec,SCL,SCR,TEMP,BVP,PVA,HR,MOTION
0,2.5487914979457855,0.0010000000474974,33.721249961853026,50.62576303482056,0.0,30.0,0.0
1,2.5448622047901153,0.08068893617019053,33.72999954223633,51.087911987304686,0.0,30.0,0.0
2,2.529374051094055,0.15574845350347455,33.738501358032224,48.82295513153076,0.0,30.0,0.0
3,2.521324872970581,-0.010954332392429893,33.7400016784668,50.31074485778809,1.1355311393737793,34.65564594268799,0.0
4,2.519035851955414,-0.015613733604550307,33.7400016784668,49.95115985870361,7.570207595825195,61.03763961791992,0.0
5,2.5134662687778473,-0.01582929834257806,33.7400016784668,50.17887630462646,6.74969482421875,55.99626541137695,0.0
6,2.506714105606079,-0.014816372748464295,33.7400016784668,51.188033962249754,8.189255428314208,61.64555053710937,0.0
7,2.500686675310135,-0.01428216039203102,33.7400016784668,50.23748483657837,12.542124843597412,81.11893520355224,0.0
8,2.4927518546581267,-0.01669802237302058,33.7400016784668,49.05738725662231,13.914529705047608,98.8359619140625,0.0
9,2.4871440649032595,-0.016145802428945834,33.7400016784668,50.328449440002444,13.223443508148193,100.76426315307616,0.0
10,2.4813837230205538,-0.015473838266916506,33.7400016784668,50.56654453277588,21.794261026382447,98.27652797698974,0.0
11,2.4745933532714846,-0.015894208243116666,33.7400016784668,52.10866899490357,27.0268620967865,97.27270488739013,0.015446372516453252
12,2.468642234802246,-0.01536724460311227,33.7400016784668,47.02686185836792,33.80341882705689,96.97363319396972,0.031611180864274474
13,2.462881863117218,-0.015013019880279834,33.73450050354004,51.902320289611815,38.73199100494385,97.83141212463377,0.0
14,2.4539170384407045,-0.01769903469830748,33.72999954223633,47.726495552062985,37.0128210067749,101.44488716125487,0.0
15,2.4468596160411833,-0.017871836572885495,33.72300071716309,49.058608531951904,34.822345924377444,102.507320022583,0.0
16,2.4390011548995973,-0.018762480560690135,33.720001220703125,47.84615392684937,30.769230222702028,103.00897159576417,0.0
17,2.430379664897919,-0.020045946212485396,33.720001220703125,52.304029083251955,22.676434564590455,113.21006546020507,0.0
18,2.423741841316223,-0.018844748660922016,33.720001220703125,49.52564077377319,22.723442935943602,125.13391609191895,0.0
19,2.4196600854396815,-0.015573584777302996,33.7109992980957,49.802197742462155,27.79975633621216,115.59299392700196,0.0
20,2.416531801223755,-0.012263023294508419,33.709999084472656,51.768620014190674,28.590354871749877,111.06824474334717,0.0
21,2.410466343164444,-0.01248563670087601,33.702750301361085,47.194749641418454,31.509157371520995,109.97708377838134,0.0
22,2.400509661436081,-0.016657602484337945,33.70000076293945,48.633088970184325,36.08241710662842,106.9854543685913,0.0
23,2.392879980802536,-0.01817686446011063,33.69800033569336,50.99511594772339,36.56410264968872,102.23835468292236,0.002873743698000905
24,2.3859370410442353,-0.018758160993456802,33.689998626708984,46.361416482925414,35.51892566680908,99.72195663452149,0.014368718490004526
25,2.379566377401352,-0.017965368134900888,33.689998626708984,57.66971926689148,27.634310960769653,101.90384979248049,0.21660842597484584
26,2.3736152350902557,-0.01643298261333253,33.6859992980957,50.76984162330628,26.5201473236084,102.0408172607422,0.1902059061452746
27,2.3679692924022673,-0.014973779185675034,33.68000030517578,47.56898670196533,44.07509260177612,103.234912109375,0.027659783512353875
28,2.4076433718204497,0.027600196875573562,33.68000030517578,45.61965799331665,34.740537118911746,108.2388376235962,0.0
29,2.507057398557663,0.11343044955283396,33.68000030517578,52.753357601165774,33.20940160751343,108.75569515228271,0.0
30,2.5588625848293303,0.13361415769904844,33.68000030517578,47.42735033035278,31.56776580810547,108.75233459472656,0.0
31,2.5522629737854006,0.09080144334584468,33.680500221252444,50.50305261611938,32.97802267074585,110.05986862182617,0.0
32,2.5393688797950746,0.04287970932200545,33.689998626708984,50.5976806640625,36.504272651672366,105.65866203308106,0.0
33,2.5287636876106263,0.0017563939785759275,33.689998626708984,48.76861991882324,30.120879173278816,96.78702316284179,0.0
34,2.5191885054111482,-0.021031264727935144,33.689998626708984,50.38339424133301,27.863247871398926,91.9596429824829,0.0
35,2.509193700551987,-0.02581392154097551,33.69900054931641,49.91330919265747,25.239316415786746,92.05184841156006,0.0
36,2.5004196226596833,-0.023820562195032768,33.70000076293945,50.76800928115845,26.834554290771486,99.39997539520263,0.0
37,2.5249870121479034,0.008233079841738798,33.70000076293945,47.421245384216306,30.799755859374994,107.04323081970215,0.0
38,2.585795170068741,0.06435061320662491,33.70774946212769,45.20757036209106,33.781440305709836,107.17460231781006,0.0
39,2.5845744132995607,0.04959276756271712,33.709999084472656,49.10439567565918,34.604397010803225,98.27186546325683,0.0
40,2.5518814623355865,0.006364712581853366,33.709999084472656,48.82417602539063,32.903541564941406,84.23383026123047,0.0
41,2.5315484941005706,-0.02125487269368017,33.712999725341795,50.74236869812012,30.354089736938484,80.8080825805664,0.0
42,2.5175862908363342,-0.03851806046441194,33.720001220703125,51.55860824584961,30.10073208808899,80.53669261932373,0.0
43,2.5065233349800113,-0.04035816788673397,33.720001220703125,48.44810733795166,26.334554290771486,79.37533569335938,0.0
44,2.4974822282791136,-0.031469289492815675,33.720001220703125,50.662393283844,24.46520185470581,83.06079807281495,0.0
45,2.489928889274597,-0.024376370804384283,33.720001220703125,48.45116004943848,25.689865112304688,87.47269039154052,0.0
46,2.482184815406799,-0.021244197757914595,33.722500801086426,50.6990234375,27.081807327270507,93.52337245941162,0.0
47,2.47611927986145,-0.018278346722945503,33.72999954223633,49.93467645645141,28.22893829345703,98.32388038635254,0.0
48,2.4700155675411226,-0.016723600216209816,33.72999954223633,51.99023170471192,29.97191677093506,102.4641284942627,0.0
49,2.461699253320694,-0.017781817028298896,33.72999954223633,49.54273509979248,31.92918109893799,104.2123908996582,0.0
50,2.456472933292389,-0.016088821203447824,33.7347505569458,51.26434679031372,35.47618942260742,104.47587203979492,0.01149497479200362
51,2.4500640630722046,-0.015965840010903745,33.7400016784668,47.91514015197754,38.859585189819335,103.38784408569336,0.0
52,2.4439985752105713,-0.015611918992362899,33.7400016784668,47.94749717712402,38.91697235107422,94.16260623931883,0.016883244365453708
53,2.439115583896637,-0.014127272088080609,33.743251132965085,45.101953220367434,38.0463981628418,87.86374053955078,0.016164808720350258
54,2.4324778079986573,-0.014772703545167996,33.75,52.805860710144046,37.699023723602295,82.8660270690918,0.0
55,2.428090810775757,-0.013406773959286461,33.75,51.10500612258911,36.407815551757814,81.27991409301758,0.0
56,2.4247337579727173,-0.011430335021577732,33.75,50.20329666137695,33.21123504638672,81.94515380859374,0.0
57,2.41695151925087,-0.014046202064491762,33.75,52.15934076309204,30.3186815738678,84.65890789031982,0.0
58,2.3415326297283174,-0.07957685138098888,33.75974836349487,50.344933319091794,27.33211269378662,90.4719081878662,0.010058102943003168
59,2.1699804604053496,-0.2140421722084284,33.7599983215332,48.751526260375975,26.807693004608154,99.71970977783204,0.010058102943003168
60,2.1256141662597656,-0.19957620576024054,33.7599983215332,45.56166067123413,31.780830144882202,103.33522624969483,0.004310615547001358
61,2.1250419616699223,-0.140244947001338,33.76825008392334,51.71611728668213,34.38461627960205,100.69795646667481,0.0
62,2.1204260170459746,-0.08506696512922643,33.772749996185304,49.72893733978272,36.33821678161621,94.99011154174806,0.0
63,2.11355938911438,-0.03690222543664275,33.779998779296875,50.03052492141724,31.102564144134522,90.54925575256348,0.0
64,2.106769025325775,-0.01556755304336543,33.779998779296875,49.6459095954895,27.75824146270752,89.79526481628417,0.0
65,2.102381944656372,-0.013642763020470686,33.78099899291992,49.748473930358884,23.818070507049562,93.91513195037841,0.0
66,2.0973845720291138,-0.013495743833482208,33.790000915527344,51.283882999420165,27.848596239089964,102.44683589935303,0.01724246218800543
67,2.093111991882324,-0.012179792532697258,33.790000915527344,49.47374868392944,30.682540130615234,108.28647708892822,0.00574748739600181
68,2.0906323850154878,-0.009649975178763212,33.79899940490723,45.56837615966797,32.234432220458984,105.58307495117188,0.0
69,2.0855586528778076,-0.01037767729721957,33.79999923706055,48.2698413848877,33.88400363922119,99.19466705322266,0.0
70,2.0786919593811035,-0.012801701668649879,33.79999923706055,47.25641021728516,34.11416292190552,92.46562671661377,0.0
71,2.073007869720459,-0.013620780804194474,33.79999923706055,52.30586080551147,34.61904773712158,89.04719543457031,0.0
72,2.0681630790233614,-0.013552604708820543,33.80500030517578,50.15079355239868,32.65567626953125,88.42806510925293,0.0
73,2.063203811645508,-0.013324247067794165,33.810001373291016,50.89682512283325,29.72954797744751,92.16348781585694,0.0
74,2.058282661437988,-0.012632161099463659,33.813250827789304,51.540293025970456,27.63125705718994,95.95660743713378,0.00574748739600181
75,2.0546586513519287,-0.011121951998211404,33.81999969482422,50.525030517578124,26.43895001411438,102.21065464019776,0.0
76,2.049699378013611,-0.011411854182369962,33.82099990844726,51.13308916091919,29.802197456359863,108.74383487701417,0.02298994958400724
77,2.045121669769287,-0.01135089057497676,33.83000183105469,46.69597063064575,34.975579261779785,111.6086835861206,0.00574748739600181
78,2.038941633701324,-0.012811056151986073,33.83525094985962,50.68376035690308,38.648353099823,104.5320484161377,0.0
79,2.033104920387268,-0.013709008088335353,33.84000015258789,47.96275997161865,39.106227493286134,92.81466979980469,0.0
80,2.0276497840881347,-0.013959080819040487,33.84324960708618,47.33211240768433,39.22893848419189,85.3359338760376,0.0
81,2.022423487901688,-0.013736536074429703,33.85099868774414,50.5811972618103,36.228938007354735,82.91474628448486,0.0
82,2.0173115730285645,-0.013284260896034489,33.86000061035156,48.226495552062985,35.05250120162964,84.23028869628907,0.0
83,2.011551207304001,-0.013496966892853322,33.86000061035156,50.92124557495117,34.498778343200684,90.22995491027832,0.0
84,2.0060197949409484,-0.013662916724570045,33.86899909973145,52.90476188659668,31.04639811515808,94.85279426574706,0.0
85,1.9999541848897935,-0.014248260017484374,33.869998931884766,51.87912120819092,31.085469436645504,101.19782695770263,0.0
86,1.9941557049751282,-0.014413703605532596,33.877000427246095,49.902319717407224,35.962149715423585,106.31433601379395,0.02298994958400724
87,2.0178075611591337,0.013012159807840335,33.88850002288818,48.18986549377441,39.32234525680542,104.26479167938234,0.0
88,2.074228638410568,0.06266087749972932,33.90175123214722,47.51526279449463,42.649573516845706,101.41035194396973,0.0
89,2.0841853618621826,0.05777479605749242,33.90999984741211,47.42246627807617,43.78754682540894,93.06991081237793,0.0
90,2.082049000263214,0.03966902149841182,33.919248294830325,48.098900985717776,39.692308044433595,89.43103866577148,0.0
91,2.0785012245178223,0.019405969069339286,33.92975025177002,51.73199014663696,36.44810752868652,88.8731300354004,0.0
92,2.075258660316467,0.0010070676040413687,33.93724908828735,51.97374858856201,32.08913288116455,93.02484760284423,0.0
93,2.0713675022125244,-0.007932024961337403,33.9444995880127,50.553113269805905,32.271673965454106,100.70093212127685,0.0
94,2.070680856704712,-0.0061845302348955975,33.954999923706055,46.94932851791382,35.18925476074219,106.02707366943359,0.0
95,2.0692694187164307,-0.0050333999330177456,33.97150058746338,47.613553047180176,37.29975624084473,104.29603252410888,0.0
96,2.0655308425426484,-0.006203958252444815,33.98625087738037,50.24542102813721,36.677655220031745,99.43030471801758,0.0
97,2.0601138174533844,-0.008804465166758703,34.00049991607666,51.36385850906372,32.194749689102174,92.17602462768555,0.0
98,2.055078268051148,-0.010712326224893287,34.01099853515625,53.57753372192383,28.832723236083986,90.29614486694337,0.0
99,2.0496231377124787,-0.01248627360910173,34.02474966049194,51.9529914855957,23.76068353652954,93.49942417144774,0.0
100,2.0435575544834137,-0.013815456023439723,34.03549995422363,48.75152635574341,29.92307629585266,102.71945362091064,0.0
101,2.0412686347961424,-0.010887868097051933,34.0522500038147,45.54395608901977,35.0341875076294,109.58020629882813,0.03951397649943826
102,2.0793786346912384,0.028703869333548883,34.06050128936768,47.03052520751953,34.919413566589355,108.42644672393799,0.012931846827268589
103,2.149952709674835,0.08754193671047682,34.07099990844726,49.90964603424072,34.96336889266968,98.77058982849121,0.0
104,2.1824931144714355,0.09636909402906894,34.08150157928467,50.81196594238281,32.442001533508304,90.25899543762208,0.0
105,2.1758934438228605,0.06284456290304656,34.09224977493286,49.45848569869995,22.634920263290404,86.06130104064941,0.0
106,2.15922269821167,0.02097556262160645,34.105749702453615,50.88644704818726,20.66849789619446,87.30936069488526,0.0
107,2.1513259649276733,-0.0065452450900920275,34.1194990158081,48.17704496383667,19.929182147979738,92.25165901184081,0.0
108,2.150372266769409,-0.014473663130775045,34.12725048065185,49.39377307891846,19.949939155578612,95.41209983825684,0.0
109,2.1499907970428467,-0.01077703981427471,34.134750270843504,49.32905988693237,20.222221851348877,101.01648845672608,0.0
110,2.149571180343628,-0.004813759704120405,34.13999938964844,51.29731349945068,21.482905864715576,104.65891494750977,0.0
111,2.150791883468628,-0.00023321651096921248,34.14575061798096,51.68681297302246,20.88705768585205,109.82598628997803,0.0
112,2.1511733531951904,0.0007704121846472474,34.153250980377194,53.75152616500854,25.53357810974121,113.42521362304687,0.0
113,2.146672010421753,-0.00341376576398029,34.15999984741211,50.21306486129761,32.12820568084717,115.28881206512452,0.01724246218800543
114,2.144039648771286,-0.00499581412877882,34.16749858856201,45.24297904968262,36.04578800201416,112.64255695343017,0.01580559015274046
115,2.142094135284424,-0.005695556476712175,34.16999816894531,45.935897254943846,40.42429895401001,101.11201095581053,0.04939246959984297
116,2.136982315778732,-0.00869657682487736,34.172248649597165,48.759463214874266,40.14346714019776,87.55812454223633,0.0014368718490004526
117,2.135570800304413,-0.0069509761931839924,34.18000030517578,48.9755802154541,36.52930402755738,80.70981330871582,0.0
118,2.1538056552410128,0.012716388421358662,34.18000030517578,48.606837558746335,37.069597244262695,79.60206985473633,0.0
119,2.2098071217536925,0.06150589697062969,34.18000030517578,52.30891332626343,38.51587247848511,80.08764839172363,0.0
120,2.2397152960300444,0.07409352865070104,34.18199996948242,49.34065942764282,34.83028039932251,80.97742538452148,0.0
121,2.2293389678001403,0.04443100043572484,34.189998626708984,50.16849822998047,31.257020616531378,82.57557697296143,0.0
122,2.2129734456539154,0.011086442075065829,34.189998626708984,49.05799760818481,30.7399263381958,90.24331760406494,0.0
123,2.201109308004379,-0.013687539356760647,34.19324932098389,51.299755859375,27.5384617805481,97.51219596862792,0.0
124,2.1955015659332275,-0.02268927195109424,34.20100059509277,51.68803434371948,29.910256576538085,104.22756252288818,0.021193859726190544
125,2.1918011605739594,-0.019131035078316906,34.209999084472656,48.64957256317139,35.29304122924805,109.76612491607666,0.0093396671116352
126,2.189931869506836,-0.011974207498133143,34.215250205993655,48.58730154037475,39.848596286773684,108.36805076599121,0.0
127,2.189970016479492,-0.005729729798622378,34.220001220703125,46.47008562088013,42.3540901184082,103.31359558105468,0.0
128,2.1869564056396484,-0.005203664867440193,34.22325067520141,48.65140428543091,40.01770467758179,97.69987297058105,0.0
129,2.182836413383484,-0.006682070111855817,34.23400039672852,50.00305261611938,35.634309959411624,95.41158294677734,0.0
130,2.1792886257171635,-0.00778990474063899,34.24125146865845,51.36507930755615,36.54822959899902,97.48606281280517,0.0
131,2.1765801906585693,-0.00789326488738875,34.25,51.600732421875,34.81562805175781,101.77344818115235,0.0
132,2.1757790625095366,-0.00592437784653152,34.25,48.760072994232175,35.6507926940918,107.76924133300781,0.0
133,2.1744818747043606,-0.0044677175406831774,34.25649890899658,50.47191724777222,38.774724102020265,111.62042922973633,0.008621231094002715
134,2.17444372177124,-0.002468640450388145,34.26374912261963,48.496337509155275,38.642856979370116,113.71042137145996,0.008621231094002715
135,2.175855302810669,0.00022467885282820757,34.27449970245361,49.97191648483276,35.18437156677246,114.3566270828247,0.007184359245002263
136,2.180585622787476,0.004851275385590215,34.284749794006345,52.01159934997558,37.34371309280395,114.50381469726562,0.02442682161927221
137,2.1814630031585693,0.0046411037445067875,34.29549999237061,46.99816865921021,37.852258968353276,111.74493923187256,0.03861593082547185
138,2.1797082424163823,0.001781352367834135,34.30925121307373,49.37851037979126,37.885837650299074,103.53143482208252,0.029276263713836636
139,2.1774193823337553,-0.001396877149090875,34.317000198364255,45.63797292709351,38.56166076660156,89.64096622467041,0.03232961669564244
140,2.1697897315025325,-0.008830343547742769,34.32425060272217,46.81929197311401,37.9682544708252,85.06668510437012,0.0
141,2.1595278918743133,-0.016397916967980528,34.33800048828125,51.439560413360596,37.329670143127444,83.04819107055664,0.0
142,2.1483886361122133,-0.021913037262856934,34.34199981689453,49.25885200500488,38.10256366729736,82.82466259002686,0.0
143,2.1403775036334993,-0.022676608385518156,34.349998474121094,51.36202707290649,31.213064098358153,86.43240127563476,0.0
144,2.1318323075771333,-0.022703222092241012,34.35624980926514,51.305250358581546,28.456654644012453,91.54799118041993,0.0
145,2.123172676563263,-0.02207224881276484,34.3669994354248,49.23748483657837,27.167277336120605,96.84236907958983,0.0
146,2.115581250190735,-0.020564895588904574,34.37424983978271,50.600122165679934,28.17582483291626,102.7629825592041,0.0
147,2.1088290214538574,-0.01892333705909546,34.384750270843504,50.77777757644653,29.025030279159544,106.60703754425049,0.0
148,2.1050904750823975,-0.015234122960828206,34.38999938964844,49.65262479782105,30.404151153564452,110.84987163543701,0.0
149,2.1007416248321533,-0.012938497168943219,34.39925136566162,49.22771663665772,30.498167991638184,113.07616672515869,0.0
150,2.0964690029621122,-0.01144929132424289,34.40375089645386,51.815018272399904,31.815628480911254,114.3425064086914,0.0
151,2.0972319662570955,-0.006015867032692715,34.40999984741211,51.39865665435791,34.695359992980954,115.3851432800293,0.0
152,2.1063112318515778,0.0051035350195888455,34.41774854660034,49.06043949127197,39.177045822143555,115.41164627075196,0.025863693654537178
153,2.1136738479137422,0.011776780779473429,34.42849998474121,45.937729072570804,40.98596019744873,109.73912696838379,0.020116205886006336
154,2.1161534786224365,0.011720000975765239,34.43274984359741,46.1385835647583,42.17094039916992,99.80167274475097,0.002873743698000905
155,2.1114993929862975,0.0039585720939157515,34.439998626708984,52.5244197845459,41.06349048614502,86.37219772338867,0.0
156,2.1048615992069246,-0.005103189331202833,34.447000122070314,50.13369941711426,38.51953458786011,80.97699737548828,0.0
157,2.0966979026794434,-0.0131746064871549,34.45000076293945,51.586690998077394,34.61294326782227,79.9474479675293,0.0
158,2.085062712430954,-0.02095023128204044,34.454999923706055,49.23443212509155,29.830891609191895,82.48413677215576,0.0
159,2.0770134747028353,-0.0218812439590692,34.459999084472656,50.20085458755493,30.168498277664185,88.52281551361084,0.0
160,2.0719778537750244,-0.018941422854550135,34.4662504196167,52.26617851257324,27.426129388809205,96.5512170791626,0.0
