sec,SCL,SCR,TEMP,BVP,PVA,HR,MOTION
0,3.0255287647247315,0.0010000000474974,35.58650074005127,49.02869338989258,0.0,30.0,0.1365028243511915
1,3.0132450461387634,0.1849896766041638,35.59399948120117,51.13308916091919,11.951159858703614,34.700802898406984,0.0
2,2.9983672380447386,0.1290953588671982,35.604499435424806,49.482295513153076,13.968254089355469,34.662044525146484,0.0
3,3.006607270240784,0.004856760173515752,35.615249729156496,49.99084205627442,11.367521476745605,38.27613925933838,0.0
4,3.0242316722869873,0.012066312110982795,35.619998931884766,49.00244197845459,10.970696020126343,57.128273010253906,0.0
5,3.057191699743271,0.041628534207120496,35.62324962615967,50.177045059204104,11.109890007972718,71.38550415039063,0.0
6,3.1329157412052155,0.10199296921491618,35.630001068115234,49.96398038864136,11.827839183807372,79.85569324493409,0.0
7,3.1871242463588714,0.12550297062844035,35.63450031280517,49.43528699874878,11.006104850769042,81.12727890014648,0.0
8,3.2735297799110414,0.16619462631642812,35.64174976348877,50.46214904785156,11.501220560073852,80.32715435028076,0.0
9,3.389271205663681,0.21938155442476273,35.655750560760495,49.18559188842774,11.669718885421753,80.95280570983887,0.0
10,3.5836359918117524,0.32466461881995196,35.66599884033203,49.36446876525879,11.257630825042725,80.40959930419922,0.0
11,3.748550349473953,0.37324088811874384,35.67699966430664,49.07509155273438,11.40170946121216,78.25745544433593,0.0
12,3.7341685235500335,0.24134586006402964,35.68724908828735,50.23565330505371,11.323565006256104,76.47715244293212,0.0
13,3.7298959136009215,0.13714234828948968,35.691749000549315,49.97374811172485,10.5671550989151,73.73006114959716,0.0
14,3.775864440202713,0.09865329600870601,35.70000076293945,49.28754587173462,10.592185544967652,73.34457817077637,0.0
15,3.767281103134155,0.0296709489268323,35.70899925231934,49.44444456100464,10.798534870147705,74.8132734298706,0.0014368718490004526
16,3.723525208234787,-0.026058735535480028,35.72000112533569,50.23809518814087,10.122100067138671,75.86846237182617,0.027120956219732734
17,3.7836085081100466,0.034928103012498414,35.72999954223633,49.08608055114746,9.995726776123046,76.16042346954346,0.0
18,3.8643681406974792,0.0943984545767307,35.7380012512207,49.521367359161374,10.840048909187317,75.93738079071045,0.0
19,3.811571091413498,0.022985319819417743,35.74850025177002,50.58241729736328,11.242368578910826,77.9361686706543,0.0
20,3.7471007466316224,-0.040001289453357416,35.75599899291992,49.765567779541016,11.486568760871886,78.86955795288085,0.0
21,3.8569673717021944,0.06094076032459268,35.77299976348877,49.70818090438843,11.59951114654541,73.10190124511719,0.0
22,3.9698858737945555,0.13612990882247683,35.787000274658205,49.70207586288452,11.835774922370911,68.56955623626709,0.0
23,3.8782921850681307,0.0246124191128274,35.794750118255614,49.51404142379761,12.39316213130951,66.61491680145264,0.0
24,3.786927396059036,-0.06282268669456241,35.8055004119873,49.15140409469605,11.89621489048004,66.14353580474854,0.0
25,3.746566689014435,-0.10134343840181825,35.81924982070923,49.934065914154054,11.733821487426757,66.67110061645508,0.0
26,3.7290948271751403,-0.10907165501266716,35.83325119018555,50.2692307472229,12.272283220291138,71.036448097229,0.0
27,3.714903688430786,-0.08154798904433842,35.84399948120117,48.83699655532837,11.746031761169434,73.90540218353271,0.0
28,3.708685576915741,-0.04339481359347697,35.854499435424806,49.26923084259033,11.539682722091674,75.930419921875,0.0
29,3.7032685220241546,-0.024340767308603913,35.865249729156496,50.79120874404907,11.545787382125855,78.53635444641114,0.0
30,3.768234819173813,0.0475232295742898,35.876000213623044,49.33638591766358,11.965811729431152,79.35600814819335,0.0
31,3.8266777634620666,0.09191282857209435,35.88649997711182,48.74603185653687,12.03418779373169,77.03104705810547,0.0
32,3.7748725712299347,0.023945127625483953,35.89400024414063,49.41697177886963,12.161171913146973,72.08552074432373,0.0
33,3.7908566653728486,0.02716524465940886,35.904500770568845,50.270451641082765,11.106226921081543,69.27882804870606,0.0
34,3.8007751524448397,0.017328504617762478,35.920248889923094,51.003052425384524,10.532356452941894,70.69699592590332,0.0
35,3.7345881521701814,-0.056801422080025046,35.93274984359741,49.476800537109376,10.481074714660645,74.49395141601562,0.0
36,3.6851481676101683,-0.08630398251116271,35.940498733520506,48.95726518630981,10.964591026306152,76.50562591552735,0.0
37,3.6581392884254456,-0.0867536667734384,35.95000076293945,49.388278293609616,11.191697239875795,76.21683139801026,0.0
38,3.6358607590198515,-0.08345774002373213,35.95799942016602,50.18437128067016,11.031745648384094,73.77336101531982,0.0
39,3.6148030042648314,-0.06879067271947856,35.968250846862794,49.67277183532715,11.042734718322754,73.54006958007812,0.0
40,3.614917439222336,-0.037532322900369716,35.97275075912476,49.76800975799561,11.511599159240722,75.1907974243164,0.0
41,3.630863356590271,-0.004929802518745373,35.97999954223633,50.714285659790036,11.726495265960693,75.99796485900879,0.0
42,3.627468192577362,0.00025029126991285257,35.98700103759766,49.161172008514406,11.030524611473083,76.32743396759034,0.0
43,3.64947966337204,0.02387192749883977,35.99775037765503,48.921855735778806,10.903540611267088,76.26348495483398,0.0
44,3.6338770568370817,0.004311845140909998,36.00849857330322,49.90781440734863,10.493894696235657,76.02304649353027,0.011674583703279482
45,3.6169393062591553,-0.014808820420876103,36.019250297546385,50.10500602722168,10.133089160919189,78.05321502685547,0.09303745180368421
46,3.648678553104401,0.016512989514012567,36.020250415802,49.334554290771486,10.936508035659791,81.98210678100585,0.0
47,3.772736293077469,0.12460386008024209,36.030998992919926,49.5164834022522,9.6385840177536,81.63143043518066,0.0287374375388026
48,3.838770705461502,0.15480845570564267,36.041500663757326,50.13553113937378,8.434676432609558,78.1889419555664,0.008621231094002715
49,3.8254188537597655,0.10492052324116222,36.04999923706055,50.12454252243042,6.862026929855347,75.07635917663575,0.0
50,3.9182714402675627,0.14941673483699558,36.05575046539307,49.533577823638915,6.22161169052124,74.41454315185547,0.0
51,4.03424174785614,0.19466546140611168,36.060001373291016,49.911477184295656,5.8998777866363525,76.2485834121704,0.0
52,4.086809957027436,0.17516477629542349,36.0640007019043,48.81074466705322,5.299145221710205,80.53281803131104,0.01149497479200362
53,4.0884884119033815,0.12324455510824914,36.06999969482422,49.561050224304196,4.747252893447876,83.78717021942138,0.0017960898578166951
54,4.145023941993713,0.12300158683210607,36.06999969482422,50.01404151916504,5.289987874031067,83.57255535125732,0.1891282524913549
55,4.232154297828674,0.14551914483308787,36.072500228881836,49.30647115707397,5.590964496135712,82.21452503204345,0.06124666146934029
56,4.343966484069824,0.19597573839128013,36.076751136779784,49.972527503967285,4.820512771606445,79.28799228668213,0.0
57,4.4578768610954285,0.24187242649495602,36.08000183105469,50.05799798965454,4.91452989578247,77.06856422424316,0.0
58,4.465468323230743,0.17347312048077582,36.08000183105469,49.60561656951904,4.219780349731446,76.45260620117188,0.0
59,4.396725356578827,0.04037475792210897,36.08000183105469,49.31501846313476,3.809523820877075,76.51231861114502,0.0
60,4.415761256217957,0.018766874443099373,36.08225145339966,49.60012226104736,3.6782661974430084,77.55446453094483,0.0
61,4.592730522155762,0.15289400238543743,36.09000015258789,49.95543327331543,3.8339438438415527,82.77878665924072,0.0
62,4.706678986549377,0.2143669459968805,36.09000015258789,50.29609279632568,3.8339438438415527,84.03361511230469,0.0
63,4.633930480480194,0.10000009257346387,36.09000015258789,49.289377498626706,4.5006104707717896,84.57905349731445,0.030892744474112954
64,4.56831568479538,0.0019501975868479325,36.09000015258789,49.52686185836792,5.528083074092865,82.8412519454956,0.0
65,4.5156331062316895,-0.08138311039656393,36.09000015258789,49.49877901077271,5.372405529022217,80.8080825805664,0.0
66,4.472907185554504,-0.1210173105821013,36.09000015258789,49.815629196166995,4.962149143218994,79.93963470458985,0.0
67,4.602229368686676,0.03621592376439364,36.09000015258789,49.55067129135132,4.818070983886718,81.85458030700684,0.0
68,4.673184943199158,0.11182688213884825,36.09000015258789,49.34920673370361,5.501221024990082,87.44075508117676,0.0
69,4.616077136993408,0.044848455907776905,36.09000015258789,49.92673978805542,5.692307829856873,91.44374122619628,0.0
70,4.597651481628418,0.014946919362773708,36.08800048828125,50.22649564743042,5.220390868186951,87.12292613983155,0.0
71,4.555269038677215,-0.04700637449277559,36.08000183105469,49.703296756744386,4.3528693318367,77.37237854003907,0.0
72,4.450476098060608,-0.1470225866883993,36.08000183105469,49.55677652359009,3.4188034534454346,73.74213314056396,0.0
73,4.392681646347046,-0.15729826353490353,36.08000183105469,49.27167282104492,3.264957308769226,74.08346939086914,0.0
74,4.370212554931641,-0.12628965862095357,36.08000183105469,49.106227207183835,3.1990232467651367,74.62686920166016,0.0
75,4.38447984457016,-0.06659949645400047,36.07500076293945,49.948107433319095,3.2936508417129517,75.39500751495362,0.0
76,4.3641850233078,-0.046321561373770234,36.06999969482422,49.97985343933105,4.798534989356995,83.0992446899414,0.0
77,4.321726107597351,-0.05658425027504562,36.067000198364255,49.78754596710205,5.798534774780274,86.3687177658081,0.0
78,4.31035795211792,-0.04649182702705727,36.060001373291016,49.24297914505005,6.6556777358055115,87.63315353393554,0.0
79,4.442541301250458,0.08768479204736648,36.05575046539307,49.82051267623901,6.954823017120361,86.0085506439209,0.0
80,4.48828091621399,0.11134839020669458,36.04999923706055,49.85470094680786,7.0024420619010925,80.31140480041503,0.0
81,4.434568321704864,0.042590266838669774,36.04450016021728,50.19169731140137,6.293650698661804,76.4531442642212,0.0
82,4.455282688140869,0.042765758279711,36.040000915527344,49.58974342346191,5.518925666809082,73.61426448822021,0.0
83,4.474929058551789,0.031564851710572814,36.030498886108404,49.61416368484497,5.326617860794068,73.81176948547363,0.0
84,4.4736701130867,0.00776613158886902,36.02999877929688,49.71001234054565,5.474969387054443,78.55498790740967,0.0
85,4.379596877098083,-0.07523049516603349,36.02225008010864,49.239926719665526,5.855921745300293,82.52179050445557,0.0
86,4.303796482086182,-0.12718939557671544,36.02000045776367,49.446886253356936,6.617826461791992,82.1190200805664,0.0
87,4.272438776493073,-0.12681590523570774,36.01099853515625,50.458485984802245,6.852258682250977,79.58988037109376,0.08764918204396957
88,4.256721639633179,-0.10215119980275629,36.0099983215332,49.197801971435545,6.299755895137787,74.79742622375488,0.026582128927111603
89,4.329393923282623,0.009480586155405011,36.008998489379884,49.37789964675903,6.25335773229599,75.08365154266357,0.0
90,4.395275747776031,0.08663956448435783,36.0,49.99511585235596,6.307692337036133,78.65176753997802,0.0
91,4.32210762500763,0.008075824186380465,35.99475088119507,49.77716703414917,5.318681335449218,80.99579315185547,0.0
92,4.270149838924409,-0.04415952609851954,35.9900016784668,49.92979249954224,4.157509213685989,82.83514595031738,0.0
93,4.315889441967011,-0.0036613174903322976,35.98975162506103,49.52625169754028,3.5494505763053894,84.14019660949707,0.0
94,4.343241703510285,0.012760201600030958,35.97999954223633,49.3846152305603,3.453601986169815,82.92549991607666,0.0
95,4.273926496505737,-0.04422354237176475,35.97200088500976,49.71855907440185,3.5897436141967773,78.42465019226074,0.0
96,4.203085422515869,-0.08912158664315935,35.96149940490723,49.93772916793823,3.3791209161281586,74.28769187927246,0.0
97,4.171384334564209,-0.09992176778614517,35.95425004959107,49.472527503967285,2.6434677243232727,72.88115310668945,0.0
98,4.205679488182068,-0.04461962043424133,35.94975070953369,49.3754581451416,3.192918241024018,76.1342342376709,0.0
99,4.268891012668609,0.03774277453776442,35.939998626708984,49.71733827590943,3.7667887806892404,79.67151069641113,0.0
100,4.2643132448196415,0.041836358048021716,35.935499382019046,49.82661762237549,4.42674001455307,82.3176040649414,0.0
101,4.308526873588562,0.07742731869220726,35.93000030517578,50.094627666473386,4.572039270401001,83.63827972412109,0.08495504800230262
102,4.334162402153015,0.07352800723165265,35.921498489379886,49.32295484542847,4.242979228496552,84.61436309814454,0.21104054693132634
103,4.373340570926667,0.08133628573268648,35.9107497215271,49.7527473449707,5.9035409450531,84.79078559875488,0.14602210056036705
104,4.57663197517395,0.23852561898529526,35.90625047683716,49.8931622505188,6.432844817638397,83.35759925842285,0.03592179641127583
105,4.736510837078095,0.31953107640147205,35.900001525878906,49.32539701461792,3.980463981628418,81.96721649169922,0.0
106,4.879261171817779,0.3553505390882492,35.89800109863281,49.71428546905518,3.980463981628418,81.96721649169922,0.0
107,4.982451856136322,0.3380523771047592,35.88774976730347,49.701465129852295,3.5787546038627625,79.98746337890626,0.0
108,5.027962565422058,0.24983324296772474,35.87675037384033,49.63614168167114,2.7564103305339813,80.36978816986084,0.0
109,5.028420329093933,0.1382482465356588,35.8625,49.42612934112549,2.8327229022979736,80.8080825805664,0.0
110,5.019035947322846,0.05779970968142147,35.849998474121094,49.53907222747803,2.969475030899048,81.1585247039795,0.0
111,5.06763664484024,0.05975266089662904,35.84199981689453,50.14590940475464,3.989011162519455,83.62358436584472,0.015805590339004978
112,5.089113998413086,0.05254157334566112,35.83775053024292,49.38339424133301,4.515873038768769,85.2913833618164,0.0
113,5.153431820869446,0.09480175543576475,35.82700119018555,49.60989007949829,4.098290729522705,82.16182022094726,0.007184359245002263
114,5.107272565364838,0.025979884687694698,35.81675024032593,49.799145221710205,4.224664211273193,79.06307945251464,0.0
115,4.9894710898399355,-0.09624377721920603,35.806000518798825,50.01465187072754,4.152014642953873,77.1641242980957,0.0
116,4.950674426555634,-0.1196631854400038,35.79225053787231,49.425518894195555,3.7283272445201874,78.10626811981201,0.0
117,4.914357388019562,-0.12671450469642875,35.77974948883057,49.23992652893067,3.6697191894054413,82.93644905090332,0.0
118,4.945867764949798,-0.05579478948493485,35.77000045776367,49.18742399215698,4.087912082672119,86.20705738067628,0.0
119,5.015297365188599,0.045544034615159,35.763499069213864,49.886446952819824,4.601343202590943,84.99181213378907,0.0
120,5.000038146972656,0.0362269956967793,35.759248447418216,50.0396824836731,3.931624013185501,79.08646869659424,0.0
121,4.931714880466461,-0.032694473689843975,35.75,49.656287860870364,3.1599512100219727,72.65375003814697,0.0
122,4.855647444725037,-0.09999697078019376,35.74175138473511,49.624542236328125,3.028083086013794,71.42857360839844,0.0
123,4.812768959999085,-0.12536169271916148,35.729250240325925,49.381563091278075,3.028083086013794,71.42857360839844,0.0
124,4.775955939292908,-0.12307316660881037,35.720001220703125,49.29548225402832,3.028083086013794,71.42857360839844,0.0
125,4.761650443077087,-0.08836485203355549,35.71349983215332,50.009768104553224,2.9853480458259583,71.12069129943848,0.0
126,4.713278591632843,-0.09105406906455751,35.70574979782104,49.97008562088013,2.6862027645111084,68.96551513671875,0.0
127,4.6763893365859985,-0.08816965529695149,35.70000076293945,49.763125801086424,3.492063522338867,68.23494815826416,0.0
128,4.756996369361877,0.01789194438024421,35.69149894714356,49.59157524108887,4.191697371006012,69.82981185913086,0.02298994958400724
129,4.834208226203918,0.09175703991204491,35.689998626708984,49.45604362487793,4.573870778083801,72.90852069854736,0.03646062314510341
130,4.827913737297058,0.07372436393052331,35.68000020980835,50.11599531173706,4.258852481842041,77.88147583007813,0.00574748739600181
131,4.859347856044769,0.08379181874915952,35.6657488822937,49.878510093688966,4.092796093225479,82.89738521575927,0.0
132,4.779274880886078,-0.02397495077893836,35.65999984741211,49.25457878112793,3.6678876876831055,83.66450653076171,0.004310615547001358
133,4.675740826129913,-0.13096748180687423,35.654750728607176,49.76251535415649,3.3229548633098602,82.4017936706543,0.0
134,4.633091163635254,-0.14155116304755205,35.64400024414063,49.55067148208618,3.4175824522972107,82.16794128417969,0.0
135,4.691114521026611,-0.04976846163626755,35.63674993515015,49.76251535415649,3.284493327140808,84.1993309020996,0.0
136,4.701376378536224,-0.011748323503707015,35.630001068115234,49.58913326263428,3.443223476409912,86.8043752670288,0.0
137,4.628666031360626,-0.051413220167159976,35.62199935913086,49.54517707824707,3.702686220407486,87.02989234924317,0.0
138,4.593111991882324,-0.06336518218740815,35.61474981307983,49.52197799682617,3.971306473016739,86.50999526977539,0.0
139,4.598757934570313,-0.046499669901095275,35.603999328613284,49.780219841003415,4.457875430583954,86.64470443725585,0.0
140,4.662274467945099,0.02216216348783743,35.596749019622806,50.26434679031372,5.018314957618713,86.71033744812011,0.0
141,4.638546407222748,0.00756884930597151,35.59000015258789,49.490842533111575,5.118437051773071,83.62781810760498,0.004310615547001358
142,4.557939374446869,-0.05906603708863252,35.58550090789795,49.329670429229736,5.25030517578125,81.8576774597168,0.0
143,4.525284540653229,-0.07731748186051837,35.57450065612793,49.71489610671997,5.606837737560272,81.62196922302246,0.0
144,4.559083783626557,-0.033565149409696404,35.56425065994263,49.534798526763915,6.092796087265015,82.07949829101562,0.0
145,4.531807935237884,-0.045646513579413225,35.55675067901611,49.57997541427612,6.532967054843903,81.94789905548096,0.0
146,4.457037568092346,-0.08665808085352175,35.54924936294556,50.10683765411377,6.581196451187134,79.17051544189454,0.0
147,4.4310586810112,-0.08083147620782252,35.53549995422363,49.50305233001709,6.666666507720947,76.27425613403321,0.0
148,4.521622383594513,0.023042613580764735,35.52499961853027,49.40170946121216,6.5054943561553955,73.60695114135743,0.0
149,4.606196784973145,0.10076581817120309,35.51424922943115,50.023809623718265,6.539682388305664,76.85766220092773,0.0
150,4.546723854541779,0.03503714807084177,35.50974836349487,49.64102602005005,6.920634746551514,80.21929931640625,0.0
151,4.443571293354035,-0.0677241339348256,35.5,49.24542179107666,7.493894934654236,80.92395973205566,0.0
152,4.3911938786506655,-0.11527286898344755,35.49875020980835,49.84432229995728,6.833333218097687,79.05539016723633,0.0
153,4.370937240123749,-0.11815265361219644,35.4900016784668,49.66605625152588,6.451770544052124,77.42002868652344,0.0
154,4.369029831886292,-0.07902518138289452,35.4900016784668,49.59279613494873,6.515872979164124,77.14940299987794,0.0
155,4.374294281005859,-0.0310666400939226,35.4900016784668,49.64590969085693,6.344932889938354,78.19858360290527,0.0
156,4.353122019767762,-0.026683699665591094,35.486500930786136,49.12026882171631,6.0463979840278625,78.2371810913086,0.07238241750746961
157,4.328859877586365,-0.036298312246799455,35.47999954223633,49.76495723724365,6.162393164634705,78.45433311462402,0.09914415720850225
158,4.367007982730866,0.010447756748180848,35.47200088500976,49.88583650588989,6.852258682250977,76.92269515991211,0.0
159,4.515671277046204,0.14426878988742825,35.470001220703125,50.39865674972534,5.5653234958648685,76.2755558013916,0.0
160,4.528641653060913,0.12401987472549078,35.470001220703125,49.45665426254273,5.442613005638123,77.17129230499268,0.0
161,4.439222371578216,0.011644471931504096,35.470001220703125,49.42307710647583,5.641025543212891,79.16574954986572,0.0
162,4.4521546244621275,0.005501785068190655,35.46274967193604,49.5769229888916,5.787545680999756,81.24195880889893,0.0
163,4.52085942029953,0.044035595282912225,35.459999084472656,49.446275806427,5.934065818786621,84.08414840698242,0.0
164,4.542909073829651,0.046616305597126456,35.459999084472656,50.3760684967041,6.649572491645813,83.73486080169678,0.0
165,4.508232378959656,0.014442778774537096,35.459999084472656,49.7210015296936,6.308913207054138,81.50403480529785,0.0
166,4.530091238021851,0.030415015039034144,35.45674962997437,49.48229560852051,5.665445804595947,77.18488445281983,0.0
167,4.564272022247314,0.04047892002854492,35.455999755859374,49.61477432250977,5.514652049541473,71.64414978027344,0.0
168,4.49938200712204,-0.033743842923649875,35.45450000762939,49.662393188476564,5.484737396240234,71.72157878875733,0.0
169,4.453260934352874,-0.06652473751455537,35.45175046920777,48.9694748878479,5.48840057849884,75.66275787353516,0.0
170,4.491409087181092,-0.016389534686459185,35.45000076293945,49.85042724609375,6.065323555469513,77.94705066680908,0.0
171,4.554696786403656,0.044798809173516876,35.45000076293945,49.849816703796385,6.984127044677734,78.15653610229492,0.0
172,4.655560445785523,0.13501728363335128,35.45000076293945,50.098901176452635,6.559218645095825,76.89124908447266,0.0
173,4.612987160682678,0.06991621333872895,35.45000076293945,49.61843719482422,6.463980555534363,75.91815853118896,0.0
174,4.517731261253357,-0.043216265772934935,35.45000076293945,49.56898670196533,6.4273505210876465,75.82460021972656,0.0
175,4.476798343658447,-0.08930665459483852,35.45000076293945,49.95054941177368,6.402930331230164,78.06998977661132,0.0
176,4.454710602760315,-0.10050198081880798,35.45000076293945,49.081807136535645,6.682539653778076,80.62189445495605,0.0
177,4.43514062166214,-0.08750080559402697,35.45699958801269,49.84920644760132,7.406593203544617,82.24995994567871,0.0
178,4.426023066043855,-0.052850522473454384,35.459999084472656,49.561660575866696,7.656288123130798,82.27238674163819,0.0
179,4.411755692958832,-0.03872528597712514,35.459999084472656,49.59951171875,7.426129221916199,80.35269527435302,0.0
180,4.410267925262451,-0.023185334983281767,35.459999084472656,49.996337223052976,7.41697188615799,78.10848751068116,0.0
181,4.413777601718903,-0.00944464039057487,35.459999084472656,49.282051467895506,6.739316082000732,79.37515392303467,0.0
182,4.4061479568481445,-0.010250881756655806,35.452750301361085,49.73199043273926,7.241147685050964,80.91612300872802,0.0
183,4.392185747623444,-0.018213480385020336,35.457499504089355,50.21306486129761,7.854700863361359,82.2372449874878,0.0
184,4.364909839630127,-0.037362448358908285,35.459999084472656,49.30036602020264,7.625763070583344,80.87530117034912,0.0
185,4.344500648975372,-0.04671210478991269,35.459999084472656,49.512820625305174,7.741147518157959,79.54408264160156,0.0
186,4.322031271457672,-0.05332178790122268,35.459999084472656,49.99084243774414,7.7753355503082275,79.87776432037353,0.0
187,4.294106841087341,-0.06096274647861717,35.470001220703125,49.73565330505371,7.8998777866363525,82.2220230102539,0.0
188,4.291016829013825,-0.041533692227676486,35.471251010894775,50.12271070480347,8.583638525009155,85.12368621826172,0.0
189,4.304864692687988,-0.012063916516490232,35.47999954223633,48.989621829986575,7.87057363986969,85.01712570190429,0.0
190,4.2886516690254215,-0.01638089755724646,35.482500076293945,49.3003662109375,8.046397924423218,82.2982177734375,0.0
191,4.348887622356415,0.04773024315945799,35.4900016784668,49.62393178939819,8.156288146972656,78.37890853881837,0.0
192,4.3572039127349855,0.044885637733386774,35.497000503540036,50.20451774597168,7.6544564962387085,76.38425235748291,0.0
193,4.296281254291534,-0.023166689869958613,35.5,49.524420166015624,7.99572639465332,76.45382404327393,0.0
194,4.291512894630432,-0.025821889098733612,35.50824861526489,49.4316237449646,8.460317659378052,76.77967548370361,0.0
195,4.276100981235504,-0.0398123734630644,35.515749549865724,49.80341911315918,8.004884052276612,77.12087745666504,0.0
196,4.242454290390015,-0.06226801434531805,35.526249408721924,49.69536046981811,7.6874237060546875,76.96169242858886,0.0
197,4.217238366603851,-0.06074436306953427,35.533999633789065,49.557386779785155,6.935286998748779,76.26103019714355,0.0
198,4.192213225364685,-0.06155544128268953,35.54450016021728,50.12271089553833,6.749694776535034,79.24926109313965,0.0
199,4.1739784479141235,-0.0585554338060319,35.54999923706055,49.22710628509522,7.429181838035584,80.93524627685547,0.0
200,4.167684042453766,-0.04086738247424359,35.55875110626221,49.276556968688965,7.554334425926209,80.99365539550782,0.0
201,4.230208742618561,0.03478441763727456,35.56625032424927,50.19902305603027,7.509157299995422,77.60343036651611,0.0
202,4.32439649105072,0.11888356301933523,35.57700119018555,49.839438152313235,7.523809385299683,75.01627883911132,0.0
203,4.333208727836609,0.1009840180166065,35.58750057220459,49.31135530471802,7.144078063964844,76.1342342376709,0.0
204,4.267174243927002,0.011404132869211013,35.595249271392824,49.96031742095947,7.213675212860108,78.72284622192383,0.0
205,4.235320568084717,-0.035909420857205956,35.599998474121094,49.43406600952149,7.828449153900147,77.90511360168458,0.0
206,4.236236095428467,-0.04409848581999537,35.60624980926514,49.29853467941284,8.012820410728455,76.55806484222413,0.0
207,4.221968746185302,-0.048285951931029525,35.61350002288818,49.619657802581784,7.797313570976257,75.93257389068603,0.0
208,4.243827617168426,-0.004383762077486598,35.619998931884766,49.9151406288147,7.6379730820655825,77.24340572357178,0.0
209,4.315774989128113,0.07242553234100334,35.624749946594235,49.35225877761841,7.423687219619751,79.37761306762695,0.0
210,4.345873939990997,0.0834246573969721,35.63200073242187,50.167887687683105,7.986568760871887,82.27337036132812,0.0
211,4.288956892490387,0.010562720107554891,35.63999938964844,49.50671548843384,7.862026870250702,82.13374214172363,0.0
212,4.316118335723877,0.024453376652672814,35.64975147247314,49.423687648773196,8.04151430130005,80.33147964477538,0.0
213,4.341257917881012,0.028188874170882554,35.650001525878906,49.81684970855713,7.77045168876648,79.92037773132324,0.0
214,4.3212682723999025,-0.0019015448346180852,35.650001525878906,49.18315029144287,7.840049052238465,81.36276264190674,0.0
215,4.377460575103759,0.053201571106910664,35.658250141143796,49.75213680267334,8.20512866973877,81.98708877563476,0.0
216,4.376888358592987,0.03844794491596983,35.66599884033203,50.03357744216919,8.137972927093506,81.3417615890503,0.0
217,4.303758358955383,-0.04326330686453727,35.67649955749512,49.55006122589111,7.33821713924408,78.5561487197876,0.0
218,4.26561028957367,-0.07095946893095968,35.68000030517578,49.5225887298584,6.619047594070435,76.93641204833985,0.0
219,4.258476531505584,-0.06362171908840535,35.687749004364015,49.57936553955078,6.282661712169647,74.79622421264648,0.0
220,4.30070652961731,-0.008579969400307166,35.69199905395508,49.74847383499146,6.234432291984558,74.97504844665528,0.0
221,4.288384664058685,-0.0033304311645224404,35.70000076293945,49.13125801086426,6.199023067951202,75.64881210327148,0.0
222,4.240089094638824,-0.03650871873833235,35.70350017547607,50.08363838195801,6.4084247827529905,78.69571380615234,0.0
223,4.215788805484772,-0.04919289108365771,35.709999084472656,49.509157466888425,7.3778998255729675,83.16972255706787,0.0
224,4.25664541721344,-0.0035217682365328027,35.71775074005127,49.374847412109375,7.551892495155334,83.71941604614258,0.0
225,4.261413943767548,0.0037599171992041902,35.72200088500976,50.14835147857666,7.123321175575256,82.17967643737794,0.0
226,4.209723222255707,-0.034528501331806134,35.72999954223633,49.31013422012329,6.3577533721923825,80.70027008056641,0.0
227,4.179967606067658,-0.05016410611569877,35.73325023651123,49.557387351989746,6.405372262001038,81.0485107421875,0.0
228,4.169553279876709,-0.050517804175615265,35.740751552581784,49.99023170471192,7.269230616092682,81.76692333221436,0.0
229,4.190038776397705,-0.019072500962647558,35.75,49.302808380126955,7.873015880584717,80.99525146484375,0.0
230,4.199919104576111,0.004367259577338658,35.75,49.64407825469971,7.814407825469971,79.25300788879395,0.0
231,4.181569826602936,-0.004691050775727452,35.75,50.26556787490845,7.79242959022522,77.8838083267212,0.00574748739600181
232,4.226699125766754,0.039173403731547235,35.75,48.959707260131836,7.072038888931274,80.145756149292,0.0
233,4.332674634456635,0.12464364320039745,35.756748867034915,49.805249977111814,6.793040335178375,83.95701541900635,0.0
234,4.431592738628387,0.18080280497670173,35.7599983215332,49.85470104217529,7.013430976867676,84.96482276916504,0.0
235,4.381923937797547,0.08769386797212061,35.76474933624267,49.52564125061035,6.442002296447754,82.90970802307129,0.0
236,4.31264683008194,-0.012185468343886893,35.77000045776367,50.02564096450806,4.729548370838165,79.58208351135254,0.0
237,4.301354885101318,-0.04422518843784926,35.778998947143556,49.36874256134033,4.518925487995148,77.22979412078857,0.0
238,4.3120746374130245,-0.03981930525042114,35.779998779296875,49.424908542633055,4.407204008102417,76.60267848968506,0.012931846641004075
239,4.331682813167572,-0.006195023462350938,35.779998779296875,49.91147747039795,4.664835202693939,77.17326431274414,0.0
