sec,SCL,SCR,TEMP,BVP,PVA,HR,MOTION
0,0.9328745454549789,0.0010000000474974,32.58875007629395,48.68864469528198,0.0,30.0,0.005927096307277673
1,0.9377956464886665,0.0010000000474974,32.61750020980835,50.808913230895996,0.0,30.0,0.1169254450127482
2,0.9637745320796967,0.10421886727272063,32.63899955749512,49.850427341461184,1.5848596215248107,32.088346290588376,0.03286844305694101
3,0.9875789612531662,0.04506809664890164,32.64675073623657,48.52258815765381,4.932845115661621,42.38261318206787,0.03197039924561975
4,0.9842219278216362,0.02655504057183856,32.66524934768677,48.587912273406985,4.333943819999695,52.39648246765137,0.02011620625853537
5,0.9706030458211898,0.005389960492402651,32.68649988174438,51.953602123260495,10.12454215288162,57.93099937438965,0.04597989954054352
6,0.9637363895773887,-0.007992017018841523,32.71124982833862,50.50976819992066,11.355311393737791,59.055118560791016,0.0071843594312667805
7,0.9727774947881699,-0.0023803246731404102,32.72950077056885,49.82173366546631,11.355311393737791,59.055118560791016,0.012931846641004075
8,0.9841837868094444,0.008645587565842962,32.74725046157837,48.94444456100464,11.355311393737791,59.055118560791016,0.0
9,0.9773552596569062,0.0030048844240809325,32.768249702453616,50.239926719665526,11.355311393737791,59.055118560791016,0.0
10,0.9710226863622665,-0.0025803714990615275,32.78975019454956,49.675213718414305,10.409035134315491,60.63974380493164,0.018679334037005883
11,0.9741508111357687,-0.0006566011486938507,32.8055004119873,49.81990222930908,5.843711900711059,59.22575073242187,0.06968828365206717
12,0.9754859969019888,-0.0010284015873594232,32.81300086975098,49.76129417419433,4.004884243011475,58.42258834838867,0.0
13,0.9700689733028411,-0.005073587386868848,32.826751136779784,49.65445690155029,4.004884243011475,58.42258834838867,0.0
14,0.9635837957262993,-0.008529532013926597,32.83825044631958,49.08547010421753,4.004884243011475,58.42258834838867,0.0
15,0.9597308158874513,-0.01002848041243845,32.859249877929685,49.901709365844724,4.44749698638916,57.514521312713626,0.02298994958400724
16,0.9577852889895441,-0.009256307827308723,32.875250053405765,50.09462757110596,4.598901224136354,56.202200317382825,0.0
17,0.9535126820206642,-0.009597233543172417,32.89225015640259,50.436508083343504,4.590964794158936,55.73618316650392,0.007184359245002263
18,0.947408966720104,-0.011156191211193737,32.91049976348877,48.61843738555908,4.590964794158936,55.73618316650392,0.004310615547001358
19,0.9461882159113882,-0.008332636347040475,32.9239990234375,50.00549430847168,4.459096670150758,54.20696096420288,0.0
20,0.9456541523337363,-0.005805132852401527,32.93924932479858,50.08608083724975,4.004884243011475,48.939640045166016,0.0
21,0.9406567558646202,-0.007763487147167273,32.955249881744386,49.2936508178711,4.239316463470459,49.96464309692383,0.038615930266678304
22,0.9327600955963135,-0.011824560188688275,32.97150049209595,49.56776571273804,5.456044030189515,52.074202919006346,0.0026941346004605276
23,0.928029726445675,-0.012485555582679768,32.98325023651123,49.95482320785523,7.125762939453125,53.4499626159668,0.0
24,0.927610093355179,-0.009191126760560974,32.99425096511841,49.539072036743164,6.617826461791992,54.20054244995117,0.0
25,0.9250160023570061,-0.007824108807835687,33.00174970626831,49.914529991149905,6.617826461791992,54.20054244995117,0.0
26,0.9216208443045616,-0.007158067473210353,33.012248802185056,50.74297914505005,6.080585956573486,53.93061923980713,0.0
27,0.9175771415233612,-0.007827216375153467,33.02599945068359,47.93162393569946,4.6617826461792,53.06961517333984,0.0
28,0.9133808359503744,-0.009146513720042961,33.043250274658206,50.000611019134524,6.398046493530273,52.60850524902344,0.0
29,0.9075823232531548,-0.01153087220154699,33.054250144958495,51.151403999328615,6.398046493530273,51.59949626922609,0.0
30,0.9015167832374573,-0.013147385371848896,33.064750576019286,48.69047622680664,6.398046493530273,51.54639053344728,0.0
31,0.8978163927793503,-0.012074136314913587,33.08075113296509,48.827838230133054,5.064102602005005,51.69996280670166,0.0
32,0.8937345564365387,-0.011368527566082727,33.09274969100952,49.53296737670898,4.202686190605164,70.75312938690186,0.0
33,0.8934293687343597,-0.007226323208305932,33.099998474121094,50.67277164459229,4.725274682044983,85.58958377838135,0.007184359245002263
34,0.892933438718319,-0.004346427827840625,33.10725002288818,49.6208794593811,5.9859584927558895,95.39144897460938,0.0
35,0.8888134375214577,-0.005793961125891605,33.111750316619876,49.79914541244507,4.66178286075592,98.69051208496094,0.0
36,0.8841593727469444,-0.007864385913126125,33.119998931884766,49.7936508178711,4.449939155578614,96.5035551071167,0.0
37,0.8768349260091781,-0.012183214374817859,33.12925090789795,48.90293016433716,4.463370037078858,96.49509925842285,0.0
38,0.8709982603788375,-0.01411163199227298,33.13674993515015,50.53418807983398,5.172161197662353,96.18545532226562,0.0
39,0.8650852993130684,-0.014920709771104119,33.144250297546385,50.95177068710327,5.02075719833374,96.63008861541746,0.0
40,0.856540122628212,-0.01745464997366066,33.150001525878906,48.62637348175049,4.688644886016846,96.69621276855467,0.0
41,0.847766050696373,-0.01926744454540307,33.155750560760495,48.62454233169556,4.688644886016846,96.69621276855467,0.00574748739600181
42,0.8475753083825112,-0.012620614457409784,33.16624879837036,49.805250358581546,4.688644886016846,96.74495029449463,0.0
43,0.8577227145433426,0.0017569276398717074,33.18324966430664,49.349206352233885,4.688644886016846,96.7741928100586,0.07633381597697733
44,0.8629871338605881,0.00840172249590973,33.197500228881836,50.44627561569214,4.24908447265625,96.30893325805664,0.01580559015274047
45,0.8595538228750229,0.004779493097157633,33.20474996566772,49.7692307472229,4.087301814556122,95.65839748382568,0.0
46,0.8531449422240257,-0.002507676172535835,33.21224956512451,49.83638563156128,3.492063522338867,76.33587646484375,0.03053352683782574
47,0.847041231393814,-0.009331456490326625,33.220001220703125,50.026251792907715,3.492063522338867,76.33587646484375,0.0
48,0.8416623324155807,-0.013036793377250371,33.22725009918213,49.25824184417725,3.492063522338867,76.33587646484375,0.0
49,0.8359019741415977,-0.014284183108247755,33.241001510620116,49.469474983215335,3.492063522338867,76.33587646484375,0.0
50,0.8297219723463058,-0.01462751640938217,33.25,49.683760738372804,3.492063522338867,76.33587646484375,0.0
51,0.8225882813334465,-0.01575632905587547,33.25524911880493,49.80097675323486,3.3821734189987183,69.8660930633545,0.0
52,0.8165990203619004,-0.015610648435540437,33.2599983215332,49.49755802154541,3.0036630630493164,47.58128356933594,0.0
53,0.8096560597419739,-0.016399775585159607,33.26324901580811,50.15018310546875,3.116605669260025,40.6056324005127,0.0
54,0.8014542073011398,-0.017933537485077932,33.27100028991699,50.63553113937378,3.522588551044464,42.14138660430908,0.0
55,0.7947019815444947,-0.01774882711470123,33.279998779296875,49.14407835006714,3.813186824321747,49.30393829345703,0.0
56,0.7895519882440567,-0.01610139312688257,33.279998779296875,50.10500621795654,4.0311355769634245,69.58296632766724,0.0
57,0.783562733232975,-0.015573147102259067,33.28274936676026,48.94810771942139,4.356532573699951,85.69446182250977,0.0
58,0.7764290273189545,-0.016009516292251606,33.290000915527344,49.84065952301025,5.196581125259399,93.53089141845703,0.0
59,0.7699820056557656,-0.015968464477918998,33.293750286102295,49.848596286773684,4.900488495826721,94.84757137298585,0.0
60,0.7625049605965615,-0.017106209089979476,33.29999923706055,49.364469051361084,4.851037931442261,95.99723930358886,0.0
61,0.7558290436863899,-0.017219393653795077,33.305250358581546,49.691086769104004,4.919413876533509,97.42703323364256,0.0
62,0.7469023630023003,-0.019178438838571264,33.310001373291016,49.48046426773071,4.801587402820587,99.0128734588623,0.0
63,0.7382045850157738,-0.0202807914000004,33.313500785827635,49.72283296585083,4.263736248016357,100.16736297607422,0.0
64,0.7362208917737008,-0.015021646046079643,33.31999969482422,49.45116004943848,4.159340882301331,99.7467113494873,0.0
65,0.7329020082950592,-0.012029203609563364,33.31999969482422,49.99267387390137,4.02197807431221,98.06410160064698,0.0
66,0.7291634857654572,-0.010189185501076227,33.32825145721436,49.71550674438477,3.741147756576538,97.19269866943358,0.0
67,0.7221823871135712,-0.011962677468545683,33.33000183105469,49.517704772949216,3.752136766910553,97.50391445159912,0.0
68,0.7166127428412438,-0.012979208095930467,33.33975019454956,49.92124557495117,4.076923257112503,98.29929084777831,0.0
69,0.7106616497039795,-0.014269649400375731,33.34699897766113,49.83211221694946,4.528083097934723,98.60594387054444,0.0
70,0.7045960873365402,-0.014926697639748401,33.354499435424806,49.517704486846924,3.882173389196396,99.16542587280273,0.0
71,0.7004379406571388,-0.013327921205200193,33.3620002746582,50.09218559265137,4.173382234573364,100.90510025024415,0.0
72,0.6941816374659538,-0.013886701571755061,33.369998931884766,49.7930401802063,4.634920835494996,101.88775596618653,0.0
73,0.6885738611221314,-0.013919388595968415,33.37024898529053,49.04029264450073,4.335775554180146,99.52970390319824,0.0
74,0.6844157293438912,-0.01273494604974979,33.380001068115234,49.770451354980466,4.042735278606415,98.03858604431153,0.0
75,0.6789986893534661,-0.012894606683403207,33.384750270843504,50.06288166046143,4.075091671943665,97.62523040771484,0.0
76,0.6755272090435028,-0.011286908364854716,33.395500564575194,50.02564058303833,4.126984119415283,97.40259552001952,0.0
77,0.6700338780879974,-0.011848199111409444,33.405750560760495,49.06227102279663,4.048840045928955,97.46605072021484,0.0
78,0.6662953495979309,-0.010904459119774362,33.40999984741211,49.968864345550536,4.147130787372589,99.06824684143065,0.0
79,0.6643879652023316,-0.008603505895007366,33.41399917602539,49.32539672851563,4.4194140315055845,101.17916812896729,0.0
80,0.6609164759516716,-0.008333322056569111,33.424499130249025,50.855310916900635,4.870574021339417,100.58407592773436,0.0
81,0.6519516572356224,-0.01310687835793938,33.435249423980714,49.03968257904053,4.932845115661621,100.4184112548828,0.0
82,0.6456953570246696,-0.01447727798949923,33.44599990844726,49.58058605194092,4.896214962005615,100.50258255004881,0.0
83,0.6422620356082916,-0.01316729581449177,33.45999927520752,49.51159934997558,4.789377379417419,99.9507007598877,0.0
84,0.6386761054396629,-0.01180229391902681,33.47425050735474,49.478632640838626,4.942613053321838,98.92011966705323,0.0
85,0.6338312849402428,-0.011323795141652177,33.4847505569458,49.3852258682251,4.932845115661621,96.0567714691162,0.0
86,0.6278420358896255,-0.01219571877736594,33.49525079727173,50.1642243385315,4.7442002415657045,94.98430404663087,0.0
87,0.6242179736495018,-0.0112802912248298,33.5,49.53724069595337,4.118437111377716,95.70938930511474,0.0
88,0.6197164729237556,-0.011427950765937523,33.509748458862305,49.48717927932739,4.468864440917969,99.72707462310791,0.0
89,0.6151005625724792,-0.011435343557968686,33.52100028991699,50.14529905319214,4.721611678600311,100.48858890533447,0.0
90,0.6086535304784775,-0.012960689514875359,33.529998779296875,49.670940494537355,4.709401822090149,99.3605281829834,0.0
91,0.6031220585107804,-0.013440230744890818,33.53825054168701,49.07875471115112,5.030525207519531,99.17355346679688,0.0
92,0.6012527957558632,-0.010547661455348082,33.54899940490723,50.29853506088257,4.906593549251556,99.05946655273438,0.0
93,0.5966749995946884,-0.010545459389686528,33.55675058364868,49.629426097869874,4.434676408767701,97.73156871795655,0.0
94,0.5917920410633087,-0.010777211980894149,33.570749855041505,49.53846130371094,4.35103806257248,96.17346534729003,0.0
95,0.5875576168298722,-0.010576959839090658,33.58000183105469,49.84065923690796,4.189255285263061,96.86124229431152,0.0
96,0.5840861067175865,-0.010094627109356161,33.58825044631958,49.64468879699707,4.44444465637207,97.69813499450683,0.0
97,0.5803094655275345,-0.009909614338539489,33.598998641967775,49.53418807983398,4.678876733779907,98.7355728149414,0.0
98,0.5753120616078377,-0.010647091385908376,33.60975046157837,49.979853534698485,4.858974361419678,99.1613208770752,0.0
99,0.5721076086163521,-0.009743115352466646,33.623999786376956,49.69597082138061,5.557997608184815,99.3048812866211,0.0
100,0.56981870085001,-0.008275454584509075,33.630001068115234,49.4017092704773,5.191697120666504,98.55478973388672,0.0
101,0.5656987234950066,-0.008877917798235956,33.640750122070315,49.823565578460695,5.288766765594483,98.8229320526123,0.0
102,0.5613879919052124,-0.00936614107340568,33.655750560760495,49.81868143081665,5.949328434467316,99.1757303237915,0.0
103,0.5580309450626373,-0.00907942533958697,33.676499652862546,49.41819305419922,6.144078159332276,98.55478973388672,0.0
104,0.5561998188495636,-0.007615561468992329,33.693999481201175,50.024420166015624,6.006715440750122,98.81681022644042,0.0
105,0.5550172328948975,-0.005737488588783835,33.70949983596802,49.70329704284668,6.6178265571594235,99.19616680145263,0.0
106,0.5537583768367768,-0.004242859838996032,33.72525033950806,49.319902420043945,6.7643468379974365,99.3377456665039,0.0
107,0.5510879844427109,-0.004751772107556412,33.74175100326538,49.62942600250244,6.254578793048859,99.3377456665039,0.0
108,0.5476546481251716,-0.006158595904707868,33.75974960327149,50.01465196609497,6.427960801124573,99.3377456665039,0.0
109,0.5448698446154594,-0.00678300916915755,33.77799949645996,49.42673997879028,6.4468865394592285,99.3377456665039,0.0
110,0.5435346484184265,-0.005805590644013092,33.80250062942505,49.95054950714111,6.509157395362854,99.51986560821533,0.0
111,0.5404828041791916,-0.006439643376506822,33.820250415802,49.38339433670044,6.805860805511474,100.14704761505126,0.0
112,0.536172054708004,-0.007898270909208763,33.83875036239624,49.36141633987427,7.169719123840332,98.12068367004393,0.0
113,0.5340738892555237,-0.007052216609008568,33.86350002288818,50.46031723022461,6.47863233089447,95.63630924224853,0.0
114,0.5345316708087922,-0.00417973173316563,33.891250705718996,49.24053745269775,5.719169616699219,94.75701599121093,0.0
115,0.5341120377182961,-0.00270237035874739,33.91399974822998,51.084859657287595,6.531135606765747,95.0646686553955,0.0
116,0.5328913331031799,-0.00217122067260784,33.93799991607666,48.631257724761966,6.593406677246094,95.08716583251952,0.0
117,0.5384990930557251,0.004146072977164252,33.96224985122681,48.84188022613525,6.579975533485412,95.2117835998535,0.0
118,0.5513931721448898,0.014951696153730118,33.98675098419189,49.29487190246582,6.410256266593933,95.36302967071533,0.0
119,0.5542924195528031,0.013862768537364864,34.01099967956543,50.96214904785156,6.228327131271362,94.28508186340332,0.0
120,0.5499816790223122,0.006064668006729295,34.032500171661376,49.40598278045654,7.578754734992981,93.46977577209472,0.0
121,0.5481505528092384,0.0011454534642097878,34.055500221252444,50.22100095748901,6.8858363032341,94.84584007263183,0.0
122,0.5468916893005371,-0.0026727086195023225,34.07825050354004,49.218558883666994,7.179487228393555,95.32515621185301,0.0
123,0.5447553992271423,-0.004981568292714605,34.108749294281004,49.75213680267334,7.163613986968994,94.11318645477294,0.0
124,0.542657233774662,-0.0049674813519231574,34.13125,49.73565330505371,6.692307555675507,93.97782974243165,0.0
125,0.5402920618653297,-0.00526944703888144,34.16324987411499,49.365079402923584,6.7210011839866635,94.22666950225829,0.0
126,0.5373928055167199,-0.00611912102904166,34.18699989318848,50.597069549560544,6.576312565803528,94.62895240783692,0.0
127,0.5360957577824592,-0.00521508841775353,34.214500427246094,49.19047622680664,6.757631254196167,96.3118101119995,0.0
128,0.5328913331031799,-0.006135962659027374,34.238750553131105,49.139194107055665,6.568986654281616,100.20369567871094,0.0
129,0.531441704928875,-0.00530658167554061,34.270749187469484,49.6147741317749,6.822954893112183,101.21089115142823,0.0
130,0.5293053910136223,-0.005197128851432311,34.293249893188474,49.74542102813721,6.170940244197846,99.45043697357178,0.0
131,0.5273598432540894,-0.005046046350616918,34.3242506980896,49.42673978805542,5.982905864715576,98.51434535980225,0.0
132,0.5241935566067696,-0.006047946424223434,34.35374984741211,50.3516487121582,6.5714284658432005,95.09759769439697,0.0
133,0.5228583604097367,-0.005165713594760693,34.37824983596802,49.330891132354736,6.324786281585693,92.35289611816405,0.0
134,0.5195013254880905,-0.006379978545010037,34.40949983596802,49.10866928100586,6.4664225578308105,95.623547744751,0.0
135,0.5166783690452575,-0.006711756030563215,34.44099998474121,50.31013412475586,6.231379652023316,97.27592220306397,0.0
136,0.513855405151844,-0.006935276254080187,34.46425018310547,49.85103797912598,6.241147744655609,98.60594387054444,0.0
137,0.5114520892500878,-0.006701001431792917,34.49625005722046,49.57631244659424,6.783272409439087,99.15110778808594,0.0
138,0.5089342907071114,-0.006588112097233483,34.52499933242798,49.6691089630127,6.79365097284317,98.74805965423585,0.0
139,0.5068361252546311,-0.005949504731688598,34.54975051879883,49.39438323974609,6.860195291042328,97.53833637237548,0.0
140,0.5051957845687867,-0.00524217170896003,34.57150096893311,49.65262498855591,6.615384459495544,94.8907627105713,0.0
141,0.501686142385006,-0.00637525749625633,34.59450006484985,50.0543345451355,5.522588431835175,96.1214069366455,0.0
142,0.4998550288379192,-0.005797117261681655,34.62074966430664,49.62515268325806,6.0293039083480835,98.03921508789062,0.0
143,0.49878688901662827,-0.004693604388739855,34.64275016784668,49.77655649185181,5.2649571895599365,98.03921508789062,0.0
144,0.49562058970332146,-0.005806143360678048,34.66399936676025,49.50427331924438,5.511599421501161,99.07998790740967,0.0
145,0.48986023366451265,-0.008830634865444107,34.692999839782715,49.446886253356936,5.943223464488984,100.19230861663819,0.0
146,0.48833429962396613,-0.007448134757578327,34.71649980545044,50.26373634338379,6.572039079666138,98.83692779541016,0.0
147,0.48745688498020173,-0.00583873005816708,34.74100103378296,49.79914512634277,6.980463802814484,97.51625499725341,0.0
148,0.48631244003772733,-0.004454394039930733,34.75924959182739,49.034798049926756,6.5921855688095095,98.05505332946777,0.0
149,0.48333689048886297,-0.004946030711289453,34.78050012588501,50.059218406677246,7.084249138832092,97.65413646697998,0.0
150,0.479598382115364,-0.006433686008676838,34.80175065994263,49.68925552368164,5.968254041671753,99.03360652923584,0.0
151,0.4774620831012726,-0.00649624299257989,34.82325105667114,49.41758270263672,4.952381038665772,100.9268585205078,0.0
152,0.4762032054364681,-0.005511533690150783,34.84124994277954,49.36263761520386,6.042735159397125,102.02092685699463,0.0
153,0.4755928322672844,-0.0039776836696546,34.86274995803833,49.73443212509155,5.7881562352180485,101.1914192199707,0.0
154,0.4741813391447067,-0.003300720883998968,34.87775030136108,49.45482320785523,5.931013369560242,100.98193912506103,0.0
155,0.47215948775410643,-0.00371930946712377,34.89850082397461,49.57753400802612,7.434676623344421,98.67422142028809,0.0
156,0.47109134346246717,-0.0033551257743965326,34.91649942398071,50.25702075958252,5.866910755634308,97.98472480773924,0.0
157,0.46941282227635384,-0.0037838794698472553,34.93799991607666,49.4157509803772,5.507936573028564,99.39829254150392,0.0
158,0.4670857846736908,-0.00454107836703765,34.956249713897705,50.25641002655029,6.49450558423996,100.28639221191405,0.0
159,0.46929837837815286,-0.0009361201487422174,34.973750591278076,49.95604400634765,7.0329670906066895,100.4184112548828,0.021193859912455062
160,0.47059541419148443,0.0009445643536309551,34.98825092315674,47.904761981964114,7.0329670906066895,100.4184112548828,0.0847754385322332
161,0.46784875392913816,-0.00138338746473886,35.006749629974365,50.42124557495117,7.7246642231941225,100.7513416290283,0.0323296161368489
162,0.4671239383518696,-0.0014360897264850498,35.02574949264526,48.87423696517944,5.396825313568115,98.36065673828124,0.0
163,0.47200689241290095,0.0032094448688439496,35.04275026321411,49.92551879882812,5.396825313568115,98.36065673828124,0.0
164,0.48001801073551176,0.009580788260791402,35.05349998474121,49.893772983551024,5.396825313568115,97.43107719421386,0.0
165,0.4818109661340714,0.009086015238426568,35.06825037002564,49.675213527679446,3.919413924217224,96.58074569702147,0.0
166,0.4785302296280861,0.00362981142534404,35.08650074005127,50.095238018035886,2.442002534866333,96.23095703125,0.0
167,0.47704245522618294,2.7241482166562504e-05,35.10549964904785,49.73321123123169,2.442002534866333,96.23095703125,0.0
168,0.47578357458114623,-0.0026454386010299875,35.12224969863892,50.106227207183835,2.471306562423706,86.32702026367187,0.0014368718490004526
169,0.47376170605421064,-0.00438556451699692,35.133500480651854,49.18314981460571,2.5152626037597656,71.47111511230469,0.010058102943003168
170,0.47166356742382043,-0.004646290623350027,35.14450035095215,49.007936573028566,2.857142925262451,70.04546432495117,0.0
171,0.4707098588347435,-0.0038337943668011096,35.15775022506714,49.47252721786499,4.468864440917969,63.32453918457031,0.0
172,0.4688406020402908,-0.0041419317480176155,35.16849842071533,50.54761915206909,4.051282262802124,60.251573944091795,0.0
173,0.46548356786370276,-0.0056749956798739275,35.17599945068359,49.292429733276364,3.5470086336135864,56.62491798400879,0.0
174,0.46224096715450286,-0.006693264562636569,35.186749172210696,49.62393159866333,3.404151439666748,54.20028619766235,0.015805590339004978
175,0.45922727361321447,-0.007376541371922896,35.19725017547607,49.28021974563599,4.273504257202148,52.81690216064453,0.0
176,0.4568239361047744,-0.007007683871779548,35.20474996566772,50.229548168182376,4.449328422546387,60.71448593139648,0.0
177,0.46399578675627706,0.0021327322476281376,35.21224956512451,49.846153831481935,4.256410312652588,84.79034767150878,0.0
178,0.46891690120100976,0.007079641276504785,35.22275075912476,49.592796325683594,4.2148964405059814,97.96898612976074,0.0
179,0.46903134509921074,0.006111437792424063,35.23325023651123,49.51953601837158,4.5909647941589355,101.93977508544921,0.0
180,0.46521653011441233,0.0010148844827199326,35.240751552581784,49.614163875579834,4.582417678833008,102.71820755004883,0.0
181,0.4631946712732315,-0.002253653755178625,35.25149974822998,50.21794891357422,4.356532335281372,103.02475032806396,0.0
182,0.46388134360313404,-0.0023192033753729802,35.2599983215332,49.46947479248047,4.363858342170715,104.32936878204346,0.0
183,0.4624698534607887,-0.003004447836428825,35.26900024414063,49.53846130371094,4.527472496032715,107.33767051696778,0.0
184,0.45838800966739657,-0.005400377075420645,35.27000045776367,49.4597071647644,4.813186895847321,108.40399322509765,0.0
185,0.4556794948875903,-0.0059724797843954906,35.27699928283691,49.14285717010498,4.612942576408386,106.44399833679199,0.0
186,0.4534669131040573,-0.006374351878184773,35.284749794006345,49.77777757644653,4.731990396976471,104.39458541870117,0.0
187,0.449842831492424,-0.007602985249832226,35.29225053787231,50.2142858505249,4.976801156997681,103.15675716400146,0.0
188,0.44568468630313873,-0.008648518985137292,35.29999923706055,49.660561847686765,5.006105184555054,101.19514102935791,0.0
189,0.44259468019008635,-0.008361428335774638,35.30024929046631,49.532356357574464,4.935897481441498,100.66692314147949,0.0
190,0.443090608716011,-0.0050195539108244145,35.310001373291016,49.64835138320923,5.4078145027160645,102.01009254455568,0.0
191,0.4449598670005798,-0.0010978068672556675,35.314750576019286,49.86752147674561,5.466422414779663,103.01348037719727,0.0
192,0.44351024329662325,-0.0010729592471761375,35.31999969482422,49.41575107574463,5.500610637664795,104.26915855407715,0.0
193,0.442823576182127,-0.000869348674132179,35.3227502822876,49.3290599822998,4.645299220085144,106.74392337799073,0.0
194,0.43870357275009153,-0.004391897859750268,35.33000183105469,49.62637348175049,4.581196570396424,106.73332557678222,0.0
195,0.4370632000267506,-0.0050647906726225675,35.33725061416626,50.23260078430176,4.981074571609497,105.85996780395507,0.0
196,0.4389324575662613,-0.0018538496442487974,35.34000015258789,49.3223443031311,5.3748472929000854,101.44238719940185,0.0
197,0.4410306170582771,0.0010957139689707724,35.345249271392824,49.30525074005127,4.146520137786865,99.55400085449219,0.0
198,0.4416028380393982,0.00199836038227654,35.349998474121094,50.43528699874878,4.465201437473297,100.97265644073487,0.0
199,0.43988616913557044,0.00035725881839425156,35.35674991607666,49.92735052108765,4.813186931610107,102.45037307739258,0.0
200,0.4430143140256405,0.0027484405291033475,35.36000061035156,49.501831436157225,4.655677711963653,104.28345813751218,0.0
201,0.4474394962191582,0.005720223020762152,35.36000061035156,49.40598306655884,5.005494570732116,107.15797672271728,0.0
202,0.4548020876944065,0.010835412913002026,35.3620002746582,49.24725255966187,4.520756995677948,107.7586658477783,0.0
203,0.4543061651289463,0.007569293491542288,35.369998931884766,49.88827848434448,4.34554340839386,107.33578987121582,0.0
204,0.44652393981814387,-0.0021373557367041825,35.37049903869629,49.50488405227661,3.879121059179306,108.31825466156006,0.0
205,0.44148839488625524,-0.007626849634107147,35.380001068115234,50.11233253479004,3.7051282227039337,108.0399948120117,0.0
206,0.44251838624477385,-0.0059674332151189,35.380001068115234,49.79059829711914,3.721611738204956,107.50041103363037,0.0
207,0.44328135475516317,-0.0036538811400532297,35.38575010299682,48.9835165977478,3.931623935699463,105.62059230804444,0.0
208,0.4400387629866599,-0.0040866758616175,35.38999938964844,49.714896297454835,4.28327248096466,105.3976547241211,0.0
209,0.43820763677358626,-0.003623170862556385,35.396750831604,50.28205165863037,4.326007544994354,104.44267330169677,0.0
210,0.43641468361020086,-0.004194512637332042,35.400001525878906,49.617826557159425,4.1648353934288025,103.74382781982422,0.0
211,0.43572801649570464,-0.003698986914241635,35.40800018310547,49.37179498672485,4.24908447265625,103.0420539855957,0.0
212,0.4343165397644043,-0.0035455295292194425,35.40999984741211,50.057387351989746,4.890110075473785,102.85032081604004,0.0
213,0.42962431684136393,-0.00630678901216009,35.40999984741211,49.58302822113037,4.909645915031433,102.77330570220947,0.0
214,0.4263817295432091,-0.007330857345368667,35.41349925994873,49.59218578338623,4.804029262065887,102.75118427276611,0.0
215,0.4246269054710864,-0.006704220385290632,35.41999816894531,50.056776714324954,4.9047619819641115,103.12396392822265,0.0
216,0.42268136143684376,-0.00618002044502641,35.41999816894531,50.46459064483643,5.34798526763916,103.34583396911623,0.0
217,0.4224143221974372,-0.003880131762707568,35.41999816894531,48.97252759933472,5.387057304382324,103.52067413330079,0.0
218,0.4211554229259491,-0.0030958064948208124,35.41999816894531,48.780830192565915,5.514041423797607,102.6836151123047,0.0
219,0.42508469000458715,0.001919196090602775,35.41999816894531,49.132478618621825,5.870573925971985,98.9290641784668,0.0
220,0.43416394367814065,0.01014577411115165,35.43000030517578,50.0689866065979,6.432234287261963,92.21632385253905,0.0
221,0.4391613483428955,0.012366805714555047,35.43000030517578,50.335775470733644,6.373626232147217,91.04704284667967,0.0
222,0.4398098722100257,0.00961080319248136,35.43000030517578,50.117826557159425,5.931623816490173,91.92144775390625,0.0
223,0.4391613483428955,0.00546983310487117,35.43000030517578,49.5305251121521,4.970085561275482,97.62629489898681,0.0
224,0.43813133984804153,0.0011886126304943537,35.432999801635745,49.072649765014646,5.489621639251709,99.92420997619628,0.0
225,0.4379405975341797,-0.0006671542218099999,35.439998626708984,50.06105012893677,5.721611857414246,98.37285194396974,0.0
226,0.4379405975341797,-0.0008139292403938625,35.44424953460693,49.729548358917235,5.352869510650635,95.09949645996093,0.0
227,0.4379405975341797,-0.0004580724795232075,35.45000076293945,50.40293035507202,5.293040454387665,94.61564273834229,0.0
228,0.4379405975341797,-0.00019286019469287992,35.45000076293945,50.24236869812012,5.319291841983795,96.33300437927247,0.0
229,0.44053469076752655,0.0023505520626712997,35.450250720977785,48.70085458755493,5.435897588729858,99.63807315826416,0.0
230,0.4428235709667206,0.0038766744779422427,35.459999084472656,48.43833923339844,5.506715655326843,103.24631328582764,0.0
231,0.44682912454009055,0.0065821429016068075,35.46750068664551,49.978021907806394,6.077533626556397,103.23257102966309,0.0
232,0.4499191254377365,0.00746852031443263,35.470001220703125,50.47619028091431,5.746031665802002,101.61003494262695,0.0
233,0.44587542340159414,0.0014012122075655075,35.47275075912476,49.43711814880371,5.416361570358276,101.36484127044677,0.0
234,0.44263282865285875,-0.0028384717443258926,35.47999954223633,49.45177040100098,5.942613065242767,101.89572200775146,0.0
235,0.44274727404117586,-0.0028747977397869324,35.47999954223633,49.860195541381835,5.970085394382477,102.69050788879395,0.0
236,0.4449217192828655,-0.0004923606509691875,35.487751197814944,49.41086645126343,5.491453075408936,103.34234313964843,0.0
237,0.45949430838227273,0.013550167111679858,35.4900016784668,50.056165885925296,5.112332284450531,105.22079601287842,0.0
238,0.46765801310539246,0.01833750156220044,35.495750713348386,50.1617826461792,4.534798741340638,104.40951652526856,0.0
239,0.46349985897541046,0.009863289899658349,35.5,49.220390224456786,4.759462809562683,102.059716796875,0.0
