sec,SCL,SCR,TEMP,BVP,PVA,HR,MOTION
0,3.5863444983959196,0.0010000000474974,34.48975162506103,57.53601932525635,0.0,30.0,1.1051340326666832
1,3.5526597023010256,0.06899579552991777,34.4900016784668,52.783882522583006,0.0,30.0,0.6108501337468624
2,3.6511581897735597,0.30488492101430886,34.488501358032224,51.15995092391968,0.0,30.0,0.3382037006318569
3,3.7364955723285673,0.124544489569962,34.47999954223633,47.04700860977173,0.0,30.0,0.0
4,3.7005600035190582,0.0617855313234031,34.468500423431394,50.27472524642944,0.0,30.0,0.0
5,3.6439863204956056,-0.007580103091549969,34.45674962997437,50.69841251373291,13.397436141967773,63.68150520324707,0.0
6,3.6045793116092684,-0.0592916904017329,34.44650001525879,50.76617822647095,8.835164880752563,60.69576473236084,0.0
7,3.5800881922245025,-0.0829219603911042,34.435499382019046,51.02808294296265,4.776556968688965,56.654516983032224,0.03053352758288382
8,3.5672704100608827,-0.06872550901025531,34.42074890136719,48.59279613494873,5.030525207519531,65.39509582519531,0.0
9,3.559488207101822,-0.04403682742267844,34.404500770568845,49.801587390899655,5.11904776096344,66.61332035064697,0.09303744938224548
10,3.548692297935486,-0.03192547960206863,34.39400024414063,49.93772888183594,5.738705635070801,75.1408920288086,0.06340196933597321
11,3.5327082097530367,-0.03130927677266295,34.3832504272461,50.42918195724487,7.1306471824646,75.66204071044922,0.10094024483114475
12,3.544457846879959,-0.008706099295522995,34.36599960327148,50.98717947006226,6.86874223947525,64.3508225440979,0.2133754592388868
13,3.610415977239609,0.05722224009223274,34.358750343322754,48.76678905487061,6.8131866455078125,61.951473236083984,0.11494974773377173
14,3.684118169546127,0.11277610082179308,34.349998474121094,49.885836124420166,5.657509100437165,58.78310356140137,0.12752237655222412
15,3.67603075504303,0.07853675698861477,34.34099998474121,48.656288146972656,5.616605758666992,65.3594741821289,0.1415318716317415
16,3.641315960884094,0.019915618293452945,34.33050174713135,50.21306476593018,5.6727718114852905,65.84619369506837,0.17457992322742935
17,3.6425366759300233,0.0007809270056895799,34.326501083374026,50.158730030059814,6.28083028793335,77.51067962646485,0.12949807085096832
18,3.659054857492447,0.00134749780117998,34.312500953674316,48.86568984985352,5.592185497283936,81.13590240478516,0.10471203513443464
19,3.626819670200348,-0.02911203880794343,34.30024995803833,49.161782836914064,5.592185497283936,81.13590240478516,0.12482823953032489
20,3.588518923521042,-0.05146953063085673,34.28750038146973,49.24236850738525,5.115995168685914,82.85124969482422,0.16039081700146193
21,3.595156717300415,-0.03061145372921597,34.27674932479859,49.21977996826172,4.639804840087891,84.56659698486328,0.04095084704458711
22,3.628078556060791,0.0069221724057569696,34.263499069213864,48.652625274658206,4.639804840087891,84.56659698486328,0.0
23,3.6045793414115908,-0.009419035341124937,34.258998489379884,48.13003664016723,4.639804840087891,84.56659698486328,0.0
24,3.6135441184043886,0.0076870322442118555,34.25,48.94871816635132,4.639804840087891,84.56659698486328,0.00574748739600181
25,3.6246452271938323,0.014867359021445694,34.24775037765503,49.239926719665526,4.639804840087891,84.56659698486328,0.004310615547001358
26,3.579477834701538,-0.03370510491076853,34.237251091003415,49.91697206497192,4.639804840087891,84.56659698486328,0.0
27,3.541901928186417,-0.05965544916689393,34.22999954223633,49.56898641586304,4.639804840087891,84.56659698486328,0.0
28,3.5192800760269165,-0.06462597046047446,34.220001220703125,49.24908437728882,4.639804840087891,84.56659698486328,0.014368718862533561
29,3.503677469491959,-0.061212311219423964,34.220001220703125,49.98962144851684,4.639804840087891,83.75504398345947,0.0
30,3.490325611829758,-0.049079629685729695,34.21174945831299,49.772283267974856,3.8681320190429687,76.91969299316406,0.0
31,3.4775078892707825,-0.03809218797832723,34.20425004959107,49.71733827590943,2.710622787475586,75.18797302246094,0.01724246218800543
32,3.466826355457306,-0.031619028188288156,34.193499374389646,49.71672801971435,2.710622787475586,75.18797302246094,0.0
33,3.468161565065384,-0.01740285756532096,34.18624925613403,49.69413919448853,2.7472528219223022,72.88431167602539,0.0
34,3.4818567812442778,0.0031866065037320047,34.17875003814697,49.70634880065918,2.8217338919639587,69.77987251281738,0.0
35,3.4713278651237487,-0.003709991205732851,34.167998504638675,49.47313804626465,2.8327229022979736,70.38123321533203,0.01724246218800543
36,3.4537415623664858,-0.01703309735748913,34.15775022506714,49.94627571105957,2.8327229022979736,70.38123321533203,0.0
37,3.4403134286403656,-0.02544363248161969,34.150001525878906,49.872405242919925,2.8327229022979736,70.38123321533203,0.024426821433007694
38,3.4269233882427215,-0.03239500890485937,34.13999948501587,49.65811986923218,2.918192982673645,70.87740478515624,0.01149497479200362
39,3.420896053314209,-0.027671255310997334,34.130001068115234,49.37912111282348,2.9548230171203613,71.09004974365234,0.0
40,3.4162419855594637,-0.020426555722951857,34.12224941253662,49.84615392684937,2.9548230171203613,71.09004974365234,0.0
41,3.4038819670677185,-0.022402786510065158,34.111500358581544,49.923687648773196,2.9548230171203613,71.09004974365234,0.0
42,3.3911404728889467,-0.025273479335010014,34.10099868774414,49.39682512283325,2.9548230171203613,71.09004974365234,0.0
43,3.380611556768417,-0.02629598793573673,34.08725061416626,49.82234439849854,2.9548230171203613,71.09004974365234,0.0
44,3.373287135362625,-0.02435396471992131,34.0792516708374,49.512210273742674,2.9548230171203613,71.09004974365234,0.0
45,3.367755651473999,-0.020166871463879903,34.06849994659424,49.858974361419676,2.9548230171203613,71.09004974365234,0.0
46,3.359363067150116,-0.019249414792284328,34.05800094604492,49.688034248352054,2.9548230171203613,71.09004974365234,0.0
47,3.3508942127227783,-0.019229296222329096,34.047499656677246,49.65750923156738,2.9548230171203613,71.09004974365234,0.0
48,3.342577892541885,-0.019814315019175358,34.040000915527344,49.64224681854248,2.5140416026115417,71.41164741516113,0.028557827882468672
49,3.3298746049404144,-0.024459690367802933,34.03024883270264,49.74725255966187,2.490842580795288,71.42857360839844,0.01149497479200362
50,3.3197271823883057,-0.025300704780965987,34.02149982452393,49.65689868927002,2.490842580795288,71.42857360839844,0.0
51,3.3114108383655547,-0.024042885331436937,34.0099983215332,49.73321123123169,2.490842580795288,71.42857360839844,0.0
52,3.301149010658264,-0.024582684505730812,34.00149974822998,49.36691093444824,2.490842580795288,71.42857360839844,0.0
53,3.2896282970905304,-0.02576266205869609,33.99725046157837,49.92979259490967,2.490842580795288,71.42857360839844,0.0
54,3.2830667734146117,-0.022125501837581336,33.989501571655275,49.49755811691284,2.490842580795288,71.42857360839844,0.0
55,3.2918790221214294,-0.005854248447030809,33.97999954223633,49.61233186721802,2.490842580795288,71.42857360839844,0.0
56,3.290696436166763,-0.0026021579957159475,33.972250843048094,49.93589735031128,2.5763126611709595,75.54945373535156,0.020116205886006336
57,3.270630532503128,-0.017637747246771997,33.96149940490723,49.94017086029053,2.6080586910247803,73.82943439483643,0.0
58,3.251861625909805,-0.029506048373877925,33.95425004959107,49.57814407348633,2.5641026496887207,52.17391204833983,0.007184359245002263
59,3.244766104221344,-0.028671722637955022,33.94675006866455,49.56715497970581,2.5641026496887207,52.17391204833983,0.02442682161927221
60,3.3352534532547,0.06358401099278123,33.939248752594,49.87240533828735,2.5641026496887207,52.17391204833983,0.015805590339004978
61,3.5137867391109467,0.2152442075312137,33.93000030517578,49.66422472000122,2.661782741546631,53.61930465698242,0.012572628818452346
62,3.6087374567985533,0.2517937283962965,33.919498920440674,49.719169521331786,2.661782741546631,53.61930465698242,0.014727936685085286
63,3.679845577478409,0.2458807487040758,33.90999984741211,49.606227207183835,2.661782741546631,53.61930465698242,0.015805590339004978
64,3.7541199803352354,0.22441060803830623,33.90050144195557,49.86752128601074,2.661782741546631,53.61930465698242,0.0
65,3.7353129744529725,0.11055751414969564,33.89625072479248,49.721611976623535,2.661782741546631,53.61930465698242,0.007184359245002263
66,3.6351359724998473,-0.0408643141054199,33.88575010299682,49.70818071365356,2.661782741546631,53.61930465698242,0.0
67,3.5497985899448397,-0.12921439912170168,33.875250053405765,49.479853343963626,2.661782741546631,53.61930465698242,0.0014368718490004526
68,3.4982604324817657,-0.15587183013558384,33.8644998550415,49.411477375030515,2.661782741546631,53.61930465698242,0.016883244365453708
69,3.470450448989868,-0.13498484101146455,33.86000061035156,49.53540878295898,2.661782741546631,53.61930465698242,0.0071843594312667805
70,3.4456541657447817,-0.1005790207535028,33.86000061035156,49.48229560852051,2.661782741546631,53.61930465698242,0.0
71,3.426465618610382,-0.06976487915962928,33.852749061584475,49.64041509628296,2.808302879333496,54.18416500091553,0.0
72,3.4139530777931215,-0.049164575990289394,33.845249271392824,49.67643461227417,2.857142925262451,54.37245178222656,0.0
73,3.3936964094638826,-0.04604405295103782,33.83800048828125,49.737484550476076,2.717948794364929,54.74965915679932,0.0
74,3.3819468021392822,-0.03841009349562222,33.83000183105469,49.785714054107665,2.710622787475586,54.76951217651367,0.0
75,3.3859141409397124,-0.01970984898507592,33.826501083374026,49.72649593353272,2.6446887254714966,60.15895128250122,0.014727936685085286
76,3.3737067699432375,-0.02127748443745072,33.81999969482422,49.699022960662845,2.5641026496887207,66.1156997680664,0.043644982948899236
77,3.3667637944221496,-0.017572368243418127,33.81550045013428,49.766788959503174,2.5641026496887207,66.1156997680664,0.1792497623711824
78,3.484183794260025,0.0985773374093696,33.810001373291016,49.774114990234374,2.5091575980186462,64.10293579101562,0.014368718862533561
79,3.726157432794571,0.2958948589861393,33.804250144958495,49.6697190284729,2.3199024200439453,57.17008209228517,0.027300565503537634
80,3.796807760000229,0.285494676977396,33.79999923706055,49.70818099975586,2.7130647897720337,55.08711090087892,0.0
81,3.6868266820907594,0.10270991954021154,33.790250873565675,49.58852252960205,2.98901104927063,52.56087799072266,0.012931846641004075
82,3.573526734113693,-0.062284263552282906,33.790000915527344,49.93833923339844,2.899877965450287,54.932420921325686,0.0
83,3.50619523525238,-0.15455570872873065,33.78199920654297,49.603785037994385,2.9426130056381226,58.174658966064456,0.0
84,3.468008983135223,-0.16697876453399654,33.777499198913574,49.606837844848634,2.979243040084839,58.93909454345703,0.0
85,3.439855623245239,-0.12809281889349217,33.77000045776367,49.480463886260985,2.979243040084839,58.93909454345703,0.015805590339004978
86,3.4242149174213408,-0.08082299027591938,33.76299896240234,49.556166076660155,2.979243040084839,58.93909454345703,0.027659783512353875
87,3.4161656737327575,-0.04795669848099345,33.7599983215332,49.6227105140686,2.979243040084839,58.93909454345703,0.03304805252701041
88,3.41418194770813,-0.02616359838284548,33.75199966430664,49.59890127182007,2.979243040084839,58.93909454345703,0.03484414294362066
89,3.403538632392883,-0.02184912231750782,33.75,49.43528709411621,2.979243040084839,58.93909454345703,0.006106705404818053
90,3.38526566028595,-0.028555024182423904,33.74400100708008,49.84126968383789,2.731379806995392,60.460539722442626,0.0
91,3.3700063943862917,-0.03306846981868141,33.7400016784668,50.04761896133423,2.6373627185821533,65.73932456970215,0.0
92,3.3599734365940095,-0.032056425558403066,33.7400016784668,49.866910743713376,2.6373627185821533,66.26173400878906,0.0
93,3.3546708703041075,-0.025556681863963555,33.7400016784668,49.8931622505188,2.6336997151374817,66.33629283905029,0.0
94,3.357722759246826,-0.011875593115109898,33.7380012512207,49.49999990463257,2.490842580795288,69.24408721923828,0.0
95,3.3596301138401032,-0.002741022040481757,33.72999954223633,49.66544561386108,2.490842580795288,69.24408721923828,0.0
96,3.3691289842128755,0.00911787441000337,33.723500633239745,49.543956184387206,2.490842580795288,69.24408721923828,0.023349167779088
97,3.3593249380588532,-0.001001338447531445,33.720001220703125,49.65323553085327,2.490842580795288,69.24408721923828,0.026402520015835734
98,3.3359782814979555,-0.022638102364726315,33.71224956512451,49.653846168518065,2.4688645601272583,69.96146011352539,0.015805590339004978
99,3.3195745646953583,-0.03312794854864471,33.709999084472656,49.68009777069092,2.442002534866333,70.83824920654297,0.00574748739600181
100,3.3041245460510256,-0.039316245168447415,33.709999084472656,49.622710418701175,2.470085561275482,69.92975311279297,0.01149497479200362
101,3.2904293835163116,-0.03933117687702171,33.700500679016116,49.53540906906128,2.5250306129455566,68.82467041015624,0.0
102,3.282570892572403,-0.031170664215460348,33.69650001525879,49.46459102630615,2.660561740398407,67.8129508972168,0.0
103,3.279557228088379,-0.020819627633318245,33.689998626708984,49.56715517044067,2.8833944499492645,67.195241355896,0.0
104,3.2750175654888154,-0.015544800786301442,33.685249423980714,49.615995216369626,2.876678943634033,66.96437225341796,0.0
105,3.264946436882019,-0.017265920317731737,33.685249423980714,49.9297926902771,2.8144078850746155,67.90161895751953,0.0
106,3.2541123569011687,-0.020744719123467734,33.680500221252444,49.78083028793335,2.7350428104400635,69.3641586303711,0.0
107,3.2409512221813204,-0.026143308077007467,33.67950019836426,49.556166076660155,2.7350428104400635,69.3641586303711,0.0
108,3.227713853120804,-0.030005786148831176,33.66999816894531,49.82967052459717,2.6581197381019592,69.8963191986084,0.0
109,3.216803514957428,-0.029743965994566607,33.66999816894531,49.62576322555542,2.5641026496887207,70.54673767089844,0.0
110,3.2072283208370207,-0.027593507338315188,33.66999816894531,49.498778915405275,2.5641026496887207,70.54673767089844,0.0
111,3.1968901813030244,-0.026456310832872965,33.66399917602539,49.71855926513672,2.741147816181183,71.0017765045166,0.0
112,3.184720903635025,-0.02724761823192237,33.65999984741211,49.7771674156189,2.9242979884147644,73.55087318420411,0.0
113,3.1766334891319277,-0.024655515048652855,33.65300102233887,49.539682674407956,2.9450550079345703,74.26270370483398,0.0
114,3.1702627480030054,-0.021298051718622417,33.6487512588501,49.68803434371948,2.976801037788391,70.23776931762696,0.00574748739600181
115,3.16267129778862,-0.0199256900232285,33.63999938964844,49.80647144317627,2.8815629482269287,69.38589096069336,0.0
116,3.1522187173366545,-0.021435530064627492,33.63999938964844,49.6318678855896,2.896825462579727,69.9560022354126,0.0
117,3.140926855802536,-0.02393269804306325,33.63999938964844,49.948717975616454,2.9059829711914062,70.22478332519532,0.0
118,3.1313516736030578,-0.024613096006214582,33.63999938964844,49.76312589645386,2.977411538362503,71.28040523529053,0.01149497479200362
119,3.1217764735221865,-0.02479869113303717,33.644250297546385,49.44261283874512,2.927960991859436,74.41280536651611,0.008621231094002715
120,3.1153676509857178,-0.021483487170189577,33.650001525878906,49.654456806182864,2.928571492433548,78.91049613952637,0.00574748739600181
121,3.1120105385780334,-0.01606588754802938,33.650001525878906,49.710622501373294,3.3308913707733154,80.96101226806641,0.0
122,3.103541672229767,-0.01693696693982925,33.650001525878906,49.62271070480347,3.3821734189987183,80.04028358459473,0.0
123,3.0927838921546935,-0.020084425946697543,33.650001525878906,50.019535827636716,3.128815680742264,78.19864253997802,0.0
124,3.0840098321437837,-0.02120529497042294,33.65400085449219,49.62026863098144,2.9059829711914062,79.64471893310547,0.0
125,3.0815301716327665,-0.016407058062031823,33.65999984741211,49.63186817169189,2.9059829711914062,82.30452728271484,0.0
126,3.102816867828369,0.01007852561306207,33.65999984741211,49.62698411941528,2.8437119126319885,83.31663570404052,0.0
127,3.2092882990837097,0.1081601658836007,33.66599884033203,49.70146532058716,2.759462833404541,84.68595886230469,0.0
128,3.316675305366516,0.18044868744909762,33.66999816894531,49.74725284576416,2.759462833404541,84.68595886230469,0.024426821433007694
129,3.3372752964496613,0.15175897553563117,33.66999816894531,49.8308913230896,2.759462833404541,84.68595886230469,0.02550447583198546
130,3.310342699289322,0.07541914568282662,33.66999816894531,49.576923274993895,2.759462833404541,84.68595886230469,0.014368718490004526
131,3.2528534710407255,-0.020667915948433754,33.66999816894531,49.498779106140134,2.759462833404541,84.68595886230469,0.011135756969451896
132,3.2140568435192107,-0.07503068838268519,33.66999816894531,49.49328479766846,2.759462833404541,84.68595886230469,0.03628101460635659
133,3.1931516528129578,-0.08136155512183904,33.66999816894531,49.47374858856201,2.759462833404541,84.68595886230469,0.004310615547001358
134,3.175183868408203,-0.06939704557880759,33.66999816894531,49.70940170288086,2.759462833404541,84.68595886230469,0.007184359245002263
135,3.160687577724457,-0.051967225968837724,33.66999816894531,49.50610523223877,2.759462833404541,84.68595886230469,0.0
136,3.1512268483638763,-0.036443141987547265,33.66999816894531,49.67521381378174,2.7173382937908173,84.31086120605468,0.0
137,3.144436478614807,-0.026896434556692807,33.66999816894531,49.70329656600952,2.8742369413375854,80.67348651885986,0.0
138,3.136043894290924,-0.022913596173748337,33.66999816894531,49.8760684967041,2.8644689321517944,77.81496105194091,0.0
139,3.126506876945496,-0.021845391765236817,33.673498916625974,49.758852100372316,2.860805928707123,76.87196617126465,0.012931846827268589
140,3.123226165771484,-0.016505977092310734,33.68000030517578,49.93101358413696,2.9548230171203613,76.62834930419922,0.03664023205637928
141,3.124713897705078,-0.008641161222476462,33.68000030517578,49.87423667907715,2.9548230171203613,76.62834930419922,0.15302685052156445
142,3.1255531311035156,-0.00330058508989164,33.68000030517578,49.5702073097229,2.9548230171203613,76.62834930419922,0.15590059254318472
143,3.1255531311035156,-0.0004021417522607956,33.688998794555665,49.96153869628906,2.918192982673645,76.44021015167236,0.011135756783187378
144,3.129177230596542,0.004237575534261824,33.689998626708984,49.534798526763915,2.5250306129455566,75.53985900878907,0.01760168038308619
145,3.18041016459465,0.05015590945258732,33.693999481201175,49.54517707824707,2.728937804698944,74.22740688323975,0.0
146,3.235763132572174,0.08748588636517524,33.70000076293945,49.628815460205075,2.8827839493751526,68.6069564819336,0.03017430901527402
147,3.236068254709244,0.0650881097652018,33.70200042724609,49.454822826385495,2.9059829711914062,66.0415195465088,0.0
148,3.261894565820694,0.06739009134471416,33.709999084472656,49.47130661010742,2.840048909187317,64.83709487915038,0.0
149,3.3225501239299775,0.09426941145211457,33.709749126434325,49.637973117828366,2.8846154510974884,63.50717830657959,0.0
150,3.3135853171348573,0.05026370398700234,33.70000076293945,49.705128002166745,2.930402994155884,62.165825843811035,0.0
151,3.2565538585186005,-0.020915195185807485,33.707499504089355,49.7680100440979,2.987179547548294,61.3763916015625,0.0
152,3.214133143424988,-0.06231375299394126,33.709999084472656,49.82051286697388,3.0036630630493164,61.255741119384766,0.0
153,3.193914604187012,-0.07408401034772397,33.71550025939941,49.57203855514526,2.986569046974182,62.439427852630615,0.0
154,3.1807916462421417,-0.06542213978245855,33.720001220703125,49.60561656951904,2.9548230171203613,64.41223907470703,0.004310615547001358
155,3.1684316277503966,-0.04740281710401177,33.720001220703125,49.92673978805542,2.5256411135196686,65.98794021606446,0.0301743088290095
156,3.16167950630188,-0.030183562589809282,33.721251010894775,49.696581268310545,2.522588610649109,58.35494117736816,0.0071843594312667805
157,3.1914731204509734,0.011526620800759705,33.72999954223633,49.50915756225586,2.539682626724243,52.664597511291504,0.0
158,3.2489242136478422,0.06483549745753406,33.72999954223633,49.785714340209964,2.8717949390411377,48.723224353790286,0.0
159,3.2492293894290922,0.05149858924560248,33.73900146484375,49.661783123016356,3.3211233615875244,47.6379508972168,0.0
160,3.2121494233608248,0.003063722747901915,33.7400016784668,50.07631254196167,3.3211233615875244,47.6379508972168,0.0
161,3.184072369337082,-0.03160004192031919,33.741001510620116,49.64407835006714,3.2496947944164276,54.78691940307617,0.0
162,3.1639683127403258,-0.051797830965369926,33.75,49.53052473068237,2.7844933569431305,57.72009963989258,0.012931846641004075
163,3.1514175951480867,-0.05099038705229758,33.75199966430664,49.589133167266844,2.6178267002105713,67.91747016906739,0.010058102943003168
164,3.1432538986206056,-0.03753637578338383,33.7599983215332,49.38949956893921,2.6373627185821533,68.84681701660156,0.014368718862533561
165,3.142490917444229,-0.020395892800297556,33.76324901580811,49.67460289001465,2.7228327989578247,68.79164352416993,0.0
166,3.1600772202014924,0.006270660938753242,33.7599983215332,49.53907222747803,2.8815629482269287,68.68917846679688,0.0
167,3.172093868255615,0.01937667760066681,33.764499282836915,49.84737491607666,2.898656964302063,68.63419723510742,0.0
168,3.1683934986591336,0.012737719493452404,33.77000045776367,50.00122079849243,2.810744881629944,68.57240657806396,0.0
169,3.1535157561302185,-0.00501412494631948,33.77849903106689,49.699023151397704,2.808302879333496,68.57142639160156,0.0
170,3.145733594894409,-0.014112901687622017,33.779998779296875,49.738705730438234,2.808302879333496,68.57142639160156,0.0
171,3.1513031840324404,-0.007974377716891417,33.7804988861084,49.46336994171143,2.808302879333496,68.57142639160156,0.0
172,3.14737389087677,-0.008409953163936683,33.790000915527344,49.699633502960204,2.808302879333496,68.57142639160156,0.0
173,3.137379044294357,-0.012554325629025653,33.794750118255614,49.61111145019531,2.808302879333496,68.57142639160156,0.0
174,3.1260109305381776,-0.018152255658060275,33.8022497177124,49.78205108642578,2.810134381055832,68.84047584533691,0.0
175,3.111362028121948,-0.02692725094966586,33.810001373291016,49.54029293060303,2.8327229022979736,72.15875244140625,0.012931846641004075
176,3.099993872642517,-0.029571375390514687,33.81025133132935,49.83760662078858,2.8235653936862946,72.89415550231934,0.010058102943003168
177,3.09064759016037,-0.027832874143496104,33.81999969482422,49.700244140625,2.808302879333496,74.11982727050781,0.0
178,3.1092257499694824,0.0004051889482070699,33.81999969482422,49.784493160247806,2.807081878185272,54.4985969543457,0.0014368718490004526
179,3.2342753410339355,0.1188232012093067,33.81999969482422,49.65140428543091,2.759462833404541,42.43281555175781,0.015805590339004978
180,3.3677175104618073,0.2142520941793918,33.8227502822876,49.79365062713623,2.730158805847168,42.16556854248047,0.00574748739600181
181,3.4121600925922393,0.20005296915769571,33.83000183105469,49.75763111114502,2.710622787475586,41.987403869628906,0.024426821433007694
182,3.422994154691696,0.14586842302232977,33.83000183105469,49.60805816650391,2.710622787475586,41.987403869628906,0.015805590339004978
183,3.4226890087127684,0.0790553024038672,33.83000183105469,49.54945030212402,2.710622787475586,41.987403869628906,0.025863693654537178
184,3.385837882757187,-0.006078083505417445,33.83825044631958,49.60195369720459,2.710622787475586,41.987403869628906,0.05891174599528307
185,3.340098279714584,-0.06164125846698874,33.84874868392944,49.66056146621704,2.710622787475586,41.987403869628906,0.05980979055166238
186,3.3162556529045104,-0.07081074314191929,33.849998474121094,49.57203931808472,2.710622787475586,41.987403869628906,0.0
187,3.341395306587219,-0.026923305503441897,33.853499221801755,49.65018291473389,2.710622787475586,41.987403869628906,0.012931846641004075
188,3.3636356711387636,0.008997471534530588,33.86000061035156,49.78388290405273,2.710622787475586,41.987403869628906,0.0
189,3.333841973543167,-0.009915982736856638,33.86799926757813,49.849206161499026,2.710622787475586,41.987403869628906,0.0
190,3.2972579121589662,-0.037231419514864604,33.87224941253662,49.554945182800296,2.710622787475586,41.987403869628906,0.028737437725067122
191,3.27314829826355,-0.05342553695663801,33.880001068115234,49.51648368835449,2.710622787475586,41.987403869628906,0.0017960898578166951
192,3.256286787986755,-0.05764332385733715,33.880001068115234,49.7936508178711,2.710622787475586,41.987403869628906,0.0
193,3.2459486603736876,-0.04644149057567111,33.88400039672852,49.54761905670166,2.710622787475586,41.987403869628906,0.0
194,3.2363353431224824,-0.03403637548908583,33.88999938964844,49.48351650238037,2.710622787475586,41.987403869628906,0.0
195,3.228400522470474,-0.025757461274042652,33.88999938964844,49.655677509307864,2.710622787475586,41.987403869628906,0.0
196,3.220198708772659,-0.022027628403156932,33.88999938964844,49.60988998413086,2.7423688173294067,41.84491138458252,0.0
197,3.2110812962055206,-0.021590132592245858,33.899501419067384,49.64163608551026,2.759462833404541,41.768184661865234,0.0
198,3.206312710046768,-0.01778073613531884,33.900751399993894,49.937118434906004,2.7173382937908173,41.768184661865234,0.0
199,3.206083804368973,-0.011095593869686083,33.90999984741211,49.698412609100345,2.5006105661392213,41.745343399047854,0.0
200,3.201925718784332,-0.009721278538927403,33.90999984741211,49.61538496017456,2.1941392332315446,42.198676681518556,0.0
201,3.19368571639061,-0.012686826195567802,33.9157488822937,49.66056156158447,2.7838828563690186,42.918453216552734,0.0
202,3.1862849891185756,-0.014921545190736615,33.91999816894531,49.59523792266846,2.7838828563690186,42.918453216552734,0.0
203,3.180104970932007,-0.016129741189070013,33.9239990234375,49.73626375198364,2.7832723557949066,42.9348165512085,0.0
204,3.171025687456131,-0.01911459183320401,33.93000030517578,49.70451774597168,2.759462833404541,43.5729866027832,0.0
205,3.1657612323760986,-0.017053011432290044,33.93000030517578,49.61904783248902,2.829059898853302,43.37204151153564,0.0
206,3.1575976252555846,-0.018124914704821967,33.938498878479,49.55738725662231,2.9853480458259583,43.01944541931152,0.0
207,3.14737389087677,-0.02079318696632978,33.939998626708984,49.82051296234131,3.028083086013794,42.83080139160156,0.0
208,3.1381038784980775,-0.021981854038312997,33.94975070953369,49.807692527770996,3.068376123905182,43.73220453262329,0.0
209,3.12776575088501,-0.023764887172728736,33.957249546051024,49.78876705169678,3.174603223800659,57.1756236076355,0.0
210,3.122425079345703,-0.020435660285875165,33.96174945831299,49.75885238647461,3.2295482754707336,67.52698383331298,0.0
211,3.1399350225925446,0.004055179156784998,33.970001220703125,49.520757007598874,3.227716773748398,75.14656467437744,0.016883244365453708
212,3.196661275625229,0.0574937082827091,33.97899971008301,49.565323448181154,3.1514042019844055,77.47446460723877,0.016164808347821222
213,3.2151249825954435,0.062220145110040904,33.986500930786136,49.70146522521973,3.125763177871704,76.88970470428467,0.0
214,3.185712766647339,0.018967117559077422,33.99725046157837,49.794261360168456,2.8913309574127197,74.2644271850586,0.030892744660377468
215,3.1530579686164857,-0.022551765420939736,34.00449924468994,49.73687429428101,2.6660562455654144,72.36405849456787,0.00574748739600181
216,3.132877600193024,-0.045463638380169855,34.0152494430542,49.53601942062378,2.6251527070999146,72.15347957611084,0.010058102943003168
217,3.124141693115234,-0.0461380005814135,34.028748989105225,49.500610733032225,2.5781441628932953,73.41504211425782,0.0
218,3.12295913696289,-0.029383123712614152,34.029998779296875,49.72832717895508,2.5885226726531982,74.16563415527344,0.0
219,3.119983518123626,-0.01644328050315375,34.037000274658205,49.65140361785889,2.5885226726531982,74.16563415527344,0.0
220,3.1094546258449554,-0.016285389079712283,34.04100074768066,49.737484741210935,2.5885226726531982,74.16563415527344,0.0
221,3.095149075984955,-0.022901417594402982,34.04999923706055,49.6398045539856,2.5885226726531982,74.16563415527344,0.004310615547001358
222,3.0810724198818207,-0.028854221664369063,34.05575046539307,49.63675231933594,2.5885226726531982,74.16563415527344,0.0
223,3.074358397722244,-0.02640806585550303,34.060001373291016,49.69658088684082,2.669108748435974,74.97022190093995,0.0
224,3.069055753946304,-0.021604123245924662,34.06675024032593,49.42612972259521,2.6568987369537354,75.34935150146484,0.008621231094002715
225,3.060090947151184,-0.020529191708192177,34.06999969482422,49.46153860092163,2.612942695617676,77.49544715881348,0.0273005651310086
226,3.0499817013740538,-0.02116236621513957,34.06999969482422,49.7228325843811,2.612942695617676,78.482666015625,0.0
227,3.0406353652477263,-0.02210728581994766,34.07225017547607,49.59218587875366,2.680097758769989,78.27298984527587,0.01149497479200362
228,3.0281228184700013,-0.02601787191815668,34.08000183105469,49.59340648651123,2.857142925262451,77.72020721435547,0.0
229,3.018318748474121,-0.026099550072103676,34.0892502784729,49.76923084259033,3.0451771020889282,77.43977355957031,0.0
230,3.0081331849098207,-0.025974713638424813,34.09399948120117,49.94566526412964,3.1733822226524353,76.74168281555175,0.0
231,2.9993209719657896,-0.024500504462048343,34.10149879455567,49.81746034622192,3.0915751457214355,76.53079833984376,0.0
232,2.990050935745239,-0.023685571178793847,34.11000061035156,49.77045202255249,3.0036630630493164,79.04871940612793,0.0
233,2.980552053451538,-0.023378138476982654,34.118749141693115,49.36630048751831,3.076923131942749,84.15729064941407,0.0
234,2.9782631397247314,-0.016794066177681023,34.122999572753905,49.50610475540161,3.435897469520569,86.50032539367676,0.0
235,2.9771950244903564,-0.010819523665122635,34.133750438690186,49.98412685394287,3.591575115919113,84.49551734924316,0.0
236,2.968306523561478,-0.013670448772609181,34.144250297546385,49.49023208618164,3.613553136587143,77.68932037353515,0.0
237,2.9562135875225066,-0.019187028286978557,34.15500068664551,49.71550674438477,3.443223476409912,75.15543975830079,0.0
238,2.945112478733063,-0.023377722222357955,34.16249942779541,49.95909624099731,3.186813235282898,74.75311660766602,0.0
239,2.9346598625183105,-0.026037820102646915,34.17299880981445,49.77899875640869,3.076923131942749,78.29046783447265,0.0
