sec,SCL,SCR,BVP,PVA,HR,MOTION
0,4.401684647798538,0.0010000000474974,59.813186931610105,0.0,30.0,0.4206442337483166
1,4.951628148555756,0.0010000000474974,51.90842485427856,0.0,30.0,0.1456628814339637
2,5.1557588338851925,0.0010000000474974,43.06959701841697,0.0,30.0,0.0729212451726197
3,5.271881771087647,0.2503960244415793,53.49816818237305,0.0,30.0,0.0143687188625335
4,5.373203206062317,0.6258697375655174,55.56043949127197,14.35042786598206,54.11690521240234,0.0307131357491016
5,5.477881705760956,0.3094831235706806,49.545787525177005,24.95726585388184,71.94244384765625,0.012931846641004
6,5.496459805965424,0.1879073562100529,51.22100105285645,24.95726585388184,71.94244384765625,0.0043106155470013
7,5.446104311943055,0.0569446787470951,46.03540916442872,24.95726585388184,71.94244384765625,0.0215530777350067
8,5.414136087894439,-0.0161987044837587,51.5323564529419,24.95726585388184,71.94244384765625,0.0797463877126574
9,5.414479446411133,-0.0331710925791412,50.80525007247925,24.95726585388184,71.94244384765625,0.0
10,5.4584643006324765,0.0105374468117588,47.58424911499024,24.95726585388184,71.94244384765625,0.0143687188625335
11,5.492835819721222,0.0481380455195903,50.04395637512207,15.354090738296511,73.38751754760742,0.0215530779212713
12,5.472159469127655,0.0244421113922726,50.86935300827027,11.2380952835083,73.43524932861328,0.0028737436980009
13,5.411236917972564,-0.0398639237508177,51.14957246780396,10.347985100746154,71.05727043151856,0.0
14,5.351115441322326,-0.0932756019756197,49.98473720550537,9.743589401245115,70.33997344970703,0.00538826957345
15,5.312814712524414,-0.1105851776897907,49.115384864807126,9.743589401245115,70.33997344970703,0.0639407970011233
16,5.278557622432709,-0.1073663478717207,50.75641069412232,8.822954535484314,67.5572338104248,0.0422081105411052
17,5.330210256576538,-0.0167540144873782,47.41941394805908,8.473748207092285,66.62965393066406,0.0100581029430031
18,5.51129949092865,0.1683595299720763,50.89194107055664,9.445665168762208,66.24837169647216,0.0
19,5.557306170463562,0.1792776491492986,49.76617841720581,13.333333015441898,64.93506622314453,0.0592709630727767
20,5.4803995013237,0.0638443398056551,46.81440763473511,13.333333015441898,64.93506622314453,0.0
21,5.4269158244133,-0.02073151733764,53.67399253845215,13.333333015441898,64.93506622314453,0.0504701234400271
22,5.409405755996704,-0.063353977818042,48.544566535949706,13.274725151062013,64.06564178466797,0.0028737436980009
23,5.377552092075348,-0.0891137894243001,50.3461540222168,13.186813354492188,62.08998260498047,0.0
24,5.336275827884674,-0.0907894123345613,49.80891332626343,12.827839183807374,62.63616600036621,0.0
25,5.299691736698151,-0.086987093836069,47.83211221694946,12.71794900894165,63.22592811584472,0.0
26,5.269211447238922,-0.0843053840100764,46.68437128067016,12.820512771606442,63.69426727294922,0.0273005656898021
27,5.260742664337159,-0.0618161041289567,54.00793676376343,13.766788840293884,53.78231239318848,0.0240676036104559
28,5.317506957054138,0.0175419940089341,50.57875423431396,22.63736343383789,45.81901550292969,0.0
29,5.43713948726654,0.1322825279086828,50.22161149978638,17.450549697875978,43.56930694580078,0.0
30,5.467085766792297,0.1328922299668192,47.41208763122559,13.992673873901367,49.58428287506104,0.0
31,5.408604693412781,0.042755520173523,50.44871816635132,13.437118768692017,57.98523178100586,0.0014368718490004
32,5.3486739754676815,-0.0398858273867517,48.48534784317017,14.374847507476806,60.35619459152222,0.0186793344095349
33,5.310907292366028,-0.0866729980334639,50.92918214797974,15.29670295715332,64.17445526123046,0.0
34,5.292405521869659,-0.088898785598576,50.12637348175049,14.078144073486328,66.40685272216797,0.0
35,5.284661293029785,-0.0615743345580994,49.04212427139282,13.094627737998962,68.99464225769043,0.0456206802278756
36,5.279435157775879,-0.0353190158028155,50.327838802337645,13.974358940124512,71.10254783630371,0.0
37,5.269211459159851,-0.025300724711269,49.75274724960328,14.913308763504029,72.40855159759522,0.0
38,5.249679565429688,-0.0312698657624423,48.834554481506345,16.134920024871825,70.61922264099121,0.0
39,5.226523649692536,-0.0420554807409643,49.95299139022827,16.910867309570314,68.38929595947266,0.0305335270240902
40,5.202223289012909,-0.0515924836508929,49.49572668075562,13.69902331829071,69.64900760650634,0.012931846641004
41,5.1802117943763735,-0.0552288797684013,51.12454195022583,12.045787143707276,71.92399406433105,0.0186793340370058
42,5.165448403358459,-0.0492635833099484,47.01709413528442,13.775946068763734,74.07643699645996,0.0201162060722708
43,5.167470395565033,-0.028279740968719,48.90903539657593,14.985958147048953,74.99053859710693,0.0100581029430031
44,5.166707348823548,-0.015297016641125,52.31379737854004,15.531745791435242,74.11792087554932,0.0
45,5.14542076587677,-0.0251218947581946,49.970695686340335,14.940170860290529,72.26339263916016,0.0229899495840072
46,5.119098436832428,-0.0397386689670383,47.042124366760255,15.651403832435609,74.9615816116333,0.0
47,5.141033673286438,-0.0065206193219637,23.58669081996195,15.84859561920166,76.77542877197266,0.0
48,5.625095355510712,0.4402906689792871,79.98534765243531,15.84859561920166,76.77542877197266,0.0
49,5.782151198387146,0.4753776349127293,35.500000015972184,15.84859561920166,76.77542877197266,0.0258636932820081
50,5.723555719852447,0.3037338837981224,66.5921859741211,15.040903520584106,76.77542877197266,0.0
51,5.756019759178161,0.2080558625049888,48.17826633453369,14.65201473236084,76.77542877197266,0.0
52,5.629940152168274,-0.0303350725909694,50.26312570571899,8.739926528930663,78.87068634033203,0.0
53,5.61727499961853,-0.0956460265442728,49.7069598197937,9.533577346801758,69.79519414901733,0.0
54,5.602740597724915,-0.0763638276606797,48.42551927566528,12.906593465805054,46.78477039337158,0.0
55,5.584009802341461,-0.0702587491832673,50.498168563842775,12.893773078918452,42.71982955932617,0.0330480528995394
56,5.572260248661041,-0.0432174672372638,51.00732593536377,13.65018298625946,44.3841049194336,0.0
57,5.554025399684906,-0.0393844746053218,46.771673107147215,15.627594447135923,58.91512594223023,0.0
58,5.54746390581131,-0.0311109234113245,49.21978025436401,16.93528652191162,69.96364307403564,0.0287374375388026
59,5.569322824478149,0.0014888604233419,49.95665464401245,17.69169716835022,71.64220123291015,0.0
60,5.58484902381897,0.0195728542283176,50.96336994171143,16.536019706726073,69.50343341827393,0.0186793340370058
61,5.569894993305207,0.0044840668495453,50.08730173110962,13.211233139038086,68.53806629180909,0.0
62,5.551355028152466,-0.0133759957039728,49.94383382797241,12.547008514404297,69.86675472259522,0.0172424621880054
63,5.530945777893066,-0.0324330121278762,51.23382158279419,12.092796421051023,70.9860855102539,0.0280190013349056
64,5.508743560314178,-0.0470290139317512,50.901709175109865,14.811965775489806,76.54965362548828,0.0
65,5.479827272891998,-0.0589208087883889,46.60866870880127,16.874237060546875,79.36220970153809,0.0
66,5.455755829811096,-0.0605980899184941,48.58119649887085,18.52258801460266,78.96373271942139,0.0
67,5.439619159698486,-0.0541546005755662,49.67338199615479,19.78632402420044,75.19369697570801,0.0
68,5.417836475372314,-0.0534833808429538,50.978632259368894,19.95604343414307,71.05705642700195,0.0
69,5.393192899227143,-0.0552931239828466,49.899267482757566,18.377289009094238,70.4337158203125,0.0
70,5.371410214900971,-0.0544871329329907,49.33577547073365,16.75213737487793,73.91561698913574,0.0
71,5.351649487018586,-0.0530591859482228,51.32051286697388,17.400489234924315,77.63173828125,0.0172424621880054
72,5.341883659362794,-0.0425168882124125,47.93345546722412,19.795482873916622,78.92854404449463,0.0
73,5.340167045593263,-0.0265546398703008,47.8553111076355,21.23687405586243,77.5665807723999,0.0
74,5.328035855293274,-0.0246634680777787,49.88827838897705,19.59829025268555,75.31885204315185,0.0014368718490004
75,5.311784744262695,-0.0284305210225283,51.488400268554685,18.782661533355714,73.96797714233398,0.0158055903390049
76,5.2969831943511965,-0.0320469860918819,49.92673997879028,17.467643547058106,74.87980880737305,0.0
77,5.28328800201416,-0.0343937374651431,50.20573863983154,17.54334602355957,77.75277748107911,0.0
78,5.269707334041596,-0.0351873656734823,49.97619047164917,19.995115661621096,80.6081932067871,0.0
79,5.253150999546051,-0.0368182796053587,48.24969472885132,20.770451164245607,79.48269653320312,0.00538826957345
80,5.238425874710083,-0.0369027563370763,49.01892538070679,20.45604357719421,73.73642463684082,0.0795667776837944
81,5.220572519302368,-0.039676213543862,49.91636142730713,19.853479385375977,69.8739517211914,0.0799259955063461
82,5.206495845317841,-0.038540863059461,51.73748464584351,19.195970678329463,74.11651344299317,0.0466983353719114
83,5.22381511926651,-0.0076846596901304,48.17948722839356,18.81318616867065,80.3231201171875,0.0287374375388026
84,5.328226566314697,0.0946544984355568,48.01037845611573,17.768619775772095,86.64818668365479,0.0
85,5.426000213623047,0.1646927241235971,48.38522577285767,16.55433428287506,89.07626132965088,0.0
86,5.445036172866821,0.1413142776116728,50.15262489318848,13.670939898490904,82.00411357879639,0.0
87,5.436223971843719,0.0869328949600457,51.150793361663816,10.878510165214538,75.13226356506348,0.0
88,5.420239841938018,0.0271022715198341,50.78205156326294,8.083027839660645,74.95335273742675,0.0
89,5.410550117492676,-0.011127898786799,50.97069616317749,8.264346742630005,79.45345077514648,0.0
90,5.418942773342133,-0.0083322249651245,48.19230766296387,10.426129603385926,83.90982933044434,0.0
91,5.4359187364578245,0.0110746812832075,49.21367559432984,11.61172151565552,82.93621826171875,0.0
92,5.429242873191834,0.0056283567291756,49.08546991348267,12.253357577323913,77.47549896240234,0.0
93,5.4059343338012695,-0.0155288677429779,51.5763126373291,10.98351662158966,73.99435997009277,0.0
94,5.391056537628174,-0.0271184966433792,50.507936573028566,11.16971893310547,74.27507019042969,0.0
95,5.377437710762024,-0.0349424134474247,48.09462757110596,13.12942590713501,78.10150032043457,0.0
96,5.362598025798798,-0.0381006671115755,50.43589744567871,14.51770453453064,80.01356391906738,0.0
97,5.349589478969574,-0.0352061404846608,49.65323572158813,17.308913040161134,77.86201477050781,0.0
98,5.337763667106628,-0.0322143312077968,48.7777777671814,18.891331672668457,73.6435935974121,0.0
99,5.319414365291595,-0.036792692169547,48.77411508560181,18.26068420410156,72.01495018005372,0.0
100,5.30213326215744,-0.039169562421739,51.97374849319458,16.79181914329529,71.81720085144043,0.0
101,5.288933968544006,-0.0374335241504013,50.01709413528442,17.59157524108887,75.09652500152588,0.0
102,5.281266212463379,-0.03106498173438,47.686202430725096,17.667887020111085,78.85427169799804,0.0
103,5.278939247131348,-0.0204676947090774,47.21916961669922,18.5225887298584,80.94639205932617,0.0
104,5.274208855628968,-0.0149953476618974,53.21672782897949,19.91819272041321,80.87892436981201,0.0
105,5.257156562805176,-0.0230905133299529,53.82173414230347,24.05982909202576,71.36825504302979,0.0
106,5.238540351390839,-0.03231982300058,47.43589735031128,25.738706588745124,67.07657623291016,0.0
107,5.218665099143982,-0.0407472053542732,46.590353679656985,25.738706588745124,67.07657623291016,0.0
108,5.1964246988296505,-0.0486242744140326,48.91941385269165,27.294261550903325,65.92450180053712,0.0
109,5.176244354248047,-0.050244569312781,51.25763120651245,19.673381900787355,70.61846141815185,0.0
110,5.164914333820343,-0.0427355363965034,49.46642265319824,20.985958671569826,76.92186164855957,0.0
111,5.148167288303375,-0.0410080977715551,49.2301586151123,19.68864545822144,82.72843971252442,0.0
112,5.151448023319245,-0.0215750043425941,50.2069598197937,19.280830955505373,82.15975513458253,0.0
113,5.175634014606476,0.0112708583568746,49.1074481010437,19.82417607307434,76.95912971496583,0.0
114,5.178609597682953,0.0153863891493528,49.57203874588013,21.08974413871765,73.73293685913086,0.0
115,5.169644749164581,0.0056781906168907,57.26495685577392,19.47496967315674,75.11786251068115,0.0071843592450022
116,5.142559599876404,-0.0215642549796029,43.29548215866089,19.21855926513672,75.3295669555664,0.0
117,5.137791037559509,-0.0237111538568569,49.66666660308838,19.21855926513672,75.3295669555664,0.0
118,5.236098825931549,0.0712756243534385,49.15934057235718,19.2429792881012,75.40704154968262,0.0
119,5.311403203010559,0.1253973573446273,50.230158710479735,19.595237922668456,75.0632884979248,0.0
120,5.27363657951355,0.0629147666506468,49.214285945892335,18.72527408599853,71.85864353179932,0.0
121,5.21954253911972,-0.0087714808803866,49.56776542663575,17.23260052204132,71.30656967163085,0.0
122,5.180593287944793,-0.0606171407736837,50.33821725845337,15.438339233398438,76.73750724792481,0.0186793340370058
123,5.1564455270767215,-0.0817040469497441,49.48717947006226,14.857753324508668,79.50403861999511,0.0
124,5.150113093852997,-0.0616327873431145,51.377899932861325,15.979243326187134,81.93094005584717,0.0
125,5.145916712284088,-0.0360529938712715,50.08241777420044,17.10195436477661,83.73538875579834,0.0
126,5.100138878822326,-0.058409428782761,49.905372619628906,17.19169807434082,83.27550506591797,0.0
127,5.006675922870636,-0.1226896600797771,47.722832679748535,16.94993963241577,83.08247184753418,0.0057474873960018
128,4.942968583106994,-0.147201807424426,44.41697187423706,14.156288003921508,82.16987991333008,0.028737436980009
129,4.958609235286713,-0.0885687021072953,56.42735052108765,12.551892280578612,81.96721649169922,0.0310723539441823
130,5.151066613197327,0.1246056344825774,42.70818099975586,12.551892280578612,81.96721649169922,0.0933966681361197
131,5.3079317808151245,0.2572395246475935,50.9615385055542,14.03662986755371,81.92254638671875,0.3249126352369785
132,5.286416220664978,0.1842904534190892,51.28083038330078,34.25641126632691,83.99153594970703,0.2124774189665913
133,5.196729934215545,0.0397019248019205,51.51648321151733,36.77655792236328,84.38818359375,0.1025567283853888
134,5.115550720691681,-0.0847578261978923,48.50366287231445,35.941392707824704,86.44526882171631,0.012213410437107
135,5.085413646697998,-0.1232201535254716,50.11599531173706,21.56471283435821,96.49940490722656,0.0
136,5.135959899425506,-0.0446767988149076,50.6239315032959,7.994505381584167,94.43149528503416,0.0
137,5.121921455860138,-0.0243846819270401,49.03296661376953,6.305250406265259,86.32133865356445,0.0
138,5.078852188587189,-0.0388202214613556,47.84065933227539,6.202686309814453,83.50730895996094,0.0
139,5.047990334033966,-0.0514725569635629,52.03174619674682,6.350427448749542,83.36437492370605,0.0057474873960018
140,5.023346650600433,-0.0648763976991176,49.93589735031128,7.106227016448974,86.48887786865234,0.0
141,5.000991857051849,-0.0674833247438072,49.554944896698,9.666055977344511,92.5245122909546,0.0
142,4.979590737819672,-0.0594831408932804,48.48718004226684,11.465201330184936,93.619181060791,0.0
143,4.963873708248139,-0.0499340717680751,52.2771674156189,11.66544587612152,87.98073978424073,0.0544215200468897
144,4.966429603099823,-0.0270097133112357,48.904761981964114,12.185592651367188,85.77555084228516,0.2787531308829784
145,5.046998500823975,0.0607154836237895,56.25518913269043,12.185592651367188,85.77555084228516,0.2634863678365945
146,5.24689474105835,0.2346393316984176,47.65567750930786,12.185592651367188,85.77555084228516,0.4359109900891781
