sec,SCL,SCR,BVP,PVA,HR,MOTION
0,3.7703710913658144,0.0010000000474974,57.043956184387206,0.0,30.0,0.1456628842279314
1,3.86341444849968,0.0010000000474974,51.27106218338013,0.0,30.0,0.044363416917622
2,3.868259239196777,0.0010000000474974,50.44444437026978,0.0,30.0,0.0
3,3.9325388371944423,0.2474630180047824,50.09829053878784,0.0,30.0,0.0
4,3.9915921449661256,0.2675126280635594,50.308302879333496,0.267399263381958,31.21247730255127,0.0
5,3.995025479793549,0.0765095936134457,50.46398048400879,5.328449249267578,55.946590423583984,0.0
6,3.967101037502289,0.0259549134629195,50.73748483657837,5.25030517578125,61.79196548461914,0.0
7,3.9377269983291625,-0.0216664574501919,50.55372409820557,5.5335774421691895,61.79196548461914,0.0
8,3.912167716026306,-0.0523728561587631,49.73199043273926,8.811965894699096,68.21806364059448,0.0
9,3.888744759559631,-0.0626120376400649,49.98901109695434,4.311355328559875,81.11661415100097,0.0
10,3.869594419002533,-0.0578723827376961,48.4010989189148,7.0415138602256775,111.52790908813476,0.0
11,3.856776624917984,-0.0467910979874431,51.66239318847656,7.203907012939453,117.99410247802734,0.0
12,3.8418225705623623,-0.0411081849597394,53.54456644058227,7.84371166229248,117.83278198242188,0.0
13,3.824770325422287,-0.0399795830249786,46.067155075073245,15.512820386886595,106.11979064941406,0.0
14,3.806917035579681,-0.0409704577177762,49.15934104919434,21.266178035736083,86.87667961120606,0.0
15,3.790742212533951,-0.0410781393758952,51.629426097869874,21.453602075576782,79.80361766815186,0.0
16,3.772850716114044,-0.0429466354660689,48.58547010421753,12.287546205520629,86.88248405456542,0.0
17,3.756485164165497,-0.042225613631308,49.65628824234009,13.960927987098694,98.78262577056884,0.0
18,3.7448118805885313,-0.0373205860145389,48.89865684509277,15.322344398498537,100.20383720397948,0.0
19,3.72940001487732,-0.0370291594415902,51.272893810272215,16.558608078956603,102.53369083404542,0.0
20,3.714026308059693,-0.0368005731143056,44.244810718670486,21.647130298614503,98.17189407348634,0.0
21,3.704107803106308,-0.0322266797535121,41.32967045395635,21.44078063964844,88.04108428955078,0.0
22,3.6999114394187926,-0.0236537985503673,62.307691955566405,21.44078063964844,88.04108428955078,0.0
23,3.7215415060520174,0.0065197367744985,54.841880321502686,21.510377883911136,87.12161102294922,0.0
24,3.794137370586395,0.0756209753453731,47.96153793334961,22.029303979873657,81.09897594451904,0.0
25,3.872035890817642,0.1301421226933597,49.021367359161374,16.974359273910522,79.90945663452149,0.0
26,3.906064033508301,0.1277618872001766,52.09218559265137,23.60561661720276,81.07378120422364,0.0
27,3.938222903013229,0.1152742652222513,47.42002449035645,24.274725341796877,81.36819343566894,0.0
28,3.952299576997757,0.0816069147549568,49.85897426605224,23.25641040802002,80.31673698425293,0.0
29,3.9434110522270194,0.0337499865330754,50.05128173828125,22.496337604522704,76.74713764190673,0.0
30,3.931127369403839,0.0016365988045436,48.31501817703247,22.429791927337646,74.21888427734375,0.0
31,3.911671805381775,-0.0239148517139255,52.38461532592773,22.181929302215572,73.34726181030274,0.0
32,3.894772171974182,-0.0367985167540609,49.18803424835205,24.30769276618957,75.14758605957032,0.0
33,3.876689946651459,-0.042577798385173,49.90842485427856,22.537851333618164,76.01620826721191,0.0
34,3.8545640408992767,-0.0480260292068123,51.07936477661133,15.164834976196286,76.28734588623047,0.0
35,3.837168478965759,-0.0469664494507014,46.15079364776612,18.84432206153869,76.56939640045167,0.0
36,3.8187429428100583,-0.0467669985257088,49.04945068359375,26.44139175415039,77.02948341369628,0.0
37,3.799249261617661,-0.0472277018241583,51.474359130859376,26.93040237426758,77.07242889404297,0.0
38,3.8107699871063234,-0.0187955152970971,47.507936573028566,21.881562805175783,77.6529613494873,0.0
39,3.859637749195099,0.0361503309570252,46.7918194770813,18.86446895599365,78.65803375244141,0.0
40,3.889927339553833,0.0598995321430265,52.859584712982176,8.909646320343018,79.9267017364502,0.0
41,3.8885158360004426,0.0458430336322634,50.47924308776855,14.379121112823489,86.19364738464357,0.0
42,3.865207380056381,0.00864054222111,49.36446895599365,10.410256791114808,96.01319274902345,0.0
43,3.8441877365112314,-0.0229051225818693,50.77960958480835,9.681929540634156,97.35332107543944,0.0739988986402749
44,3.827516996860504,-0.039713736064732,49.62087903022766,26.691085815429688,97.7198715209961,0.1126148294657467
45,3.8127918422222136,-0.0426583791151642,42.87057392308488,26.691085815429688,87.02520294189453,0.1630849519744515
46,3.829691433906555,-0.0108772902844066,53.05738697052002,26.691085815429688,85.83690643310547,0.0770522516220807
47,3.862269973754883,0.0275246574776246,52.88339433670044,42.89987711906433,86.68041172027588,0.0071843592450022
48,3.866351819038391,0.0289302200078963,50.19108648300171,24.66422462463379,83.71755981445312,0.0
49,3.8522370159626007,0.009947136726987,45.87423701286316,23.4371190071106,82.41448802947998,0.0
50,3.848803687095642,0.0009054762987943,53.72954769134522,25.109890127182005,79.61961364746094,0.0
51,3.916096991300583,0.056443517981097,45.47863273620605,22.82417643070221,82.63271312713623,0.0
52,3.993156182765961,0.1107996305450797,48.94383382797241,9.093406867980956,98.06151714324952,0.0
53,3.995826578140259,0.0872103755362331,54.11599502563477,15.903540849685667,106.3341785430908,0.0
54,3.966528820991516,0.0335339782875961,46.44932842254639,17.291819667816164,104.47607803344728,0.0
55,3.9358577370643615,-0.0177542726349201,51.047008228302005,14.334554672241214,101.3780994415283,0.0
56,3.91544845700264,-0.0478276342153549,51.39987802505493,14.713064908981323,99.9645881652832,0.0
57,3.896984773874282,-0.0555189752951264,46.46214904785156,12.651404118537902,94.87044563293458,0.0
58,3.873599964380264,-0.0563611037097871,52.1916971206665,9.474358868598936,89.82035827636719,0.0
59,3.8498718202114106,-0.0558314064517616,48.98901100158692,8.278388023376465,89.82035827636719,0.0
60,3.8346125423908233,-0.0491018611006438,46.65445671081543,8.278388023376465,89.82035827636719,0.0
61,3.820841073989868,-0.0434018432162701,54.186813068389895,22.61294250488281,81.59957580566406,0.0
62,3.801156669855118,-0.0440114890225231,48.95909624099731,23.794872283935543,76.92780456542968,0.0
63,3.7814340591430655,-0.0449737820774316,48.08791208267212,22.860194778442384,75.21149005889893,0.0
64,3.763542568683624,-0.0451163944788276,51.54151420593261,25.84127006530762,74.96651763916016,0.0
65,3.7449262917041777,-0.0463093139231204,50.18803396224976,20.641635966300964,76.26671562194824,0.0
66,3.727492618560791,-0.0453198161907493,49.54029321670532,18.70573947429657,78.25703315734863,0.0
67,3.719138145446777,-0.0359953470528125,50.26190443038941,20.5610502243042,82.9546480178833,0.0
68,3.7235252022743226,-0.0173365995018684,50.085470008850095,14.766788625717163,86.39290218353271,0.0057474873960018
69,3.748550373315811,0.0149363145406823,49.39499354362488,19.557386684417725,90.988427734375,0.0057474873960018
70,3.765793311595917,0.0312751697842031,50.516483306884766,17.435897827148438,92.95120239257812,0.0
71,3.7663655281066895,0.0255894660949706,46.22893772125244,17.76251564025879,93.1937183380127,0.0
72,3.7572481095790864,0.0084659062848003,49.47008571624756,30.5006103515625,102.65184020996094,0.0
73,3.74584184885025,-0.0092623977630864,51.28082990646362,22.86202716827393,99.15903091430664,0.0
74,3.740501165390015,-0.0159496693173423,48.82478647232056,21.192918634414674,92.779207611084,0.0
75,3.7446592926979054,-0.0081648548235534,50.10378503799439,20.537240982055664,73.34038772583008,0.0
76,3.77044740319252,0.0196746544912457,50.566544437408446,26.91086707115173,77.75921173095703,0.0
77,3.7900937139987945,0.0353462325409054,48.979243230819705,21.647741413116456,79.95606555938721,0.0
78,3.793336308002472,0.0302809607237576,50.888888931274415,25.98656859397888,90.22959842681884,0.0
79,3.7805185198783873,0.0085295149765442,52.281440544128415,23.22161159515381,110.1882890701294,0.0023349167779088
80,3.810350358486176,0.0289337830035946,43.518925476074216,30.228327369689943,100.14044570922852,0.1030955530703067
81,3.9187292039394377,0.1159463277086615,50.25152606964112,32.20085387229919,80.8687406539917,0.0605282267555593
82,4.023102515935898,0.1826164435595273,56.88278350830078,25.172161388397218,87.39823265075684,0.0398731939494609
83,4.14235360622406,0.2433925841003656,50.7008544921875,28.16544461250305,114.5272092819214,0.0930374506860971
84,4.200071752071381,0.2228634774684905,46.11050062179565,21.909645271301272,100.39606094360352,0.0
85,4.182218313217163,0.1243235604837536,44.080586433410645,20.871184015274046,91.87189083099364,0.0
86,4.221549117565155,0.0967213241383432,50.776556968688965,24.493284225463867,90.4295425415039,0.0
87,4.312532424926758,0.1279946276918053,49.00488405227661,25.606226634979247,86.90276641845703,0.0
88,4.320429027080536,0.0881579225882887,51.503052711486816,14.2967031955719,90.75731658935548,0.0
89,4.27159949541092,0.0162125980688869,53.32600746154785,13.58180718421936,100.1779151916504,0.0
90,4.220633578300476,-0.0454270240385084,47.63492031097413,23.779608774185185,102.21425628662108,0.0
91,4.1750846862792965,-0.0916420346125959,50.13247900009155,11.008546948432922,86.03227272033692,0.0
92,4.140751361846924,-0.1034352209419011,52.90903558731079,8.65018310546875,96.78936462402343,0.0
93,4.113170289993287,-0.0911319985985755,44.41086711883545,8.644688606262207,97.0873794555664,0.0
94,4.087725424766541,-0.0771408859640359,50.621489715576175,14.236874341964722,99.8510498046875,0.0
95,4.066248083114624,-0.0650020259432493,52.1538462638855,12.277167320251465,121.28093948364258,0.0
96,4.059648513793945,-0.0443256014958023,46.73260059356689,13.16544599533081,126.31578826904294,0.0
97,4.07494580745697,-0.0108229375488007,50.823565769195554,15.894994354248048,121.97881851196288,0.0
98,4.103900277614594,0.0255921721342019,50.56532335281372,15.184981322288513,119.17257022857666,0.0422081105411052
99,4.17199467420578,0.0868313757702708,41.42796087265015,22.25702023506165,123.2795545578003,0.0801056046038865
100,4.254394686222076,0.1409628458321094,57.58119668960571,28.962148666381843,124.610595703125,0.1005810271948575
101,4.276635086536407,0.1211087888106703,47.33272304534912,28.16727728843689,104.9604621887207,0.0705863274633884
102,4.249168372154236,0.0536773081403225,54.665445518493655,29.52747287750244,89.96647243499756,0.0
103,4.207853937149048,-0.0155381862190551,50.46764373779297,26.45360150337219,82.31517429351807,0.0
104,4.169782102108002,-0.0641760057769715,41.16849799156189,22.00244140625,82.02323913574219,0.0043106155470013
105,4.140064716339111,-0.0810676528140901,55.23809499740601,22.00244140625,82.02323913574219,0.0186793340370058
106,4.112102162837982,-0.0798118056729435,53.05921869277954,23.927961349487305,81.18296852111817,0.0
107,4.112025892734527,-0.0481625100132077,44.542124366760255,24.3589750289917,78.02772216796875,0.0
108,4.17920469045639,0.036209673716803,52.10134363174439,24.94261384010315,77.57210197448731,0.0229899495840072
109,4.259048748016357,0.1091220619156956,50.21672773361206,30.275946855545044,80.25263690948486,0.0
110,4.336909079551697,0.1583418287336825,46.77106227874756,25.689866256713863,83.60970916748047,0.0
111,4.400273132324219,0.1720505122095345,51.66483507156372,21.42612953186035,87.28809814453125,0.0
112,4.3895535349845884,0.1027131869457661,48.23015880584717,18.2173376083374,92.92529773712158,0.0693290665745734
113,4.344958364963532,0.0129514561936957,49.61660614013672,25.567766189575195,119.98527221679689,0.0071843594312667
114,4.307458662986756,-0.0449376208707689,51.96092824935913,29.18681268692016,131.89384765625,0.0114949747920036
115,4.39180428981781,0.0318147602520184,51.19047613143921,29.700243759155278,132.13691940307618,0.09429471231997
116,4.558816754817963,0.1773751839995384,47.23748483657837,16.818681240081787,109.04557857513429,0.0359217962250113
117,4.593302702903747,0.1744467627257108,50.883394718170166,20.081196212768557,100.35328159332276,0.0
118,4.5381404757499695,0.0789833487011492,51.56410236358643,28.30891361236572,91.21154880523682,0.0
119,4.469969797134399,-0.0252396697302174,48.23382177352905,25.99389514923095,81.70422859191895,0.0
120,4.420987606048584,-0.0957391142845153,48.74908390045166,25.76312561035156,78.6700304031372,0.0
121,4.382877588272095,-0.1176464784890413,52.66788759231567,29.29304027557373,77.44808006286621,0.0
122,4.353350973129272,-0.103047945536673,49.23992691040039,29.721001195907597,78.92954998016357,0.0
123,4.321115732192993,-0.0888539610430597,45.48779020309448,27.681929540634155,78.66973819732667,0.0
124,4.29811247587204,-0.0733336789533495,50.43467645645141,26.636141300201416,78.67683601379395,0.0
125,4.27381203174591,-0.066073134727776,49.898657131195066,28.89194059371948,77.35443477630615,0.0
126,4.254127633571625,-0.0582800871692597,46.87484722137451,29.39316220283508,77.0550926208496,0.0
127,4.234939134120941,-0.0530178303830325,52.69474992752075,11.053113770484924,79.47019958496094,0.0
128,4.213156509399414,-0.0521420614793896,50.55372409820557,9.59706974029541,79.47019958496094,0.0
129,4.193853557109833,-0.0502385667525231,47.96398038864136,14.79609282016754,90.5300703048706,0.0
130,4.184659886360168,-0.0399545748718082,51.857753086090085,23.859584236145015,106.16870346069337,0.0
131,4.177983796596527,-0.0300579849630593,47.809523582458496,28.00976753234864,111.94029998779294,0.0
132,4.201483201980591,0.0050448213070921,52.4859580039978,24.669108200073246,104.90002899169922,0.0
133,4.233375012874603,0.0378483450505882,46.37545785903931,24.71306495666504,87.05091705322266,0.0071843592450022
134,4.239745616912842,0.0369552203454076,45.79853467941284,26.68864431381225,75.9466516494751,0.0
135,4.222808051109314,0.0112858125095953,55.67093982696533,19.299145698547363,90.4043706893921,0.0172424621880054
136,4.201559543609619,-0.0161310605006292,50.73260049819946,19.731380462646484,108.40108489990234,0.0
137,4.190725386142731,-0.0287185254506766,47.17338209152221,21.879731559753417,121.89225234985352,0.0
138,4.1756950378417965,-0.0366533549502491,52.99877910614013,18.91330814361573,122.14896507263184,0.0
139,4.166844844818115,-0.0318118731491267,53.16422443389892,22.46092758178711,108.33839168548585,0.0
140,4.166310787200928,-0.0190457161981612,43.95482301712036,22.80891304016113,98.1163402557373,0.0
141,4.1667304039001465,-0.0097983451560139,44.117216205596925,23.9242977142334,89.32644348144531,0.0057474873960018
142,4.161961627006531,-0.0082859505550003,57.255799770355225,25.80830316543579,83.34091625213622,0.0
143,4.196104323863983,0.0281680895073804,45.89499363899231,24.43833899497985,82.03758239746094,0.0
144,4.320696139335633,0.1356266466900705,48.30830268859863,22.70451784133911,84.10026149749756,0.0
145,4.395085024833679,0.1695081699639558,54.56654462814331,26.422467041015626,84.22265930175782,0.0
146,4.3843271970748905,0.113584143668413,46.76129422187805,23.60805916786194,83.49682521820068,0.0
