sec,SCL,SCR,BVP,PVA,HR,MOTION
0,1.7886516898870468,0.0010000000474974,25.85042716348544,0.0,30.0,2.1303421318531033
1,1.836527594923973,0.0010000000474974,42.54212465286255,0.0,30.0,0.4818908840417862
2,1.8194753855466843,0.0010000000474974,60.975579786300656,0.0,30.0,0.42172188088297846
3,2.0111316323280333,0.17486093255865848,62.08730125427246,0.0,30.0,0.2853986646980047
4,2.117221587896347,0.30497694984078405,52.06288166046143,0.0,30.0,0.17799249887466428
5,2.198858606815338,0.23675918951630592,48.652625274658206,15.42857093811035,44.508828830719,0.05891174599528308
6,2.2551652669906614,0.21789732836186887,50.78083028793335,26.92857069969177,62.14311695098877,0.25989419221878046
7,2.3312707901000977,0.19652906544506546,51.57020778656006,11.648351669311523,65.1112289428711,0.24462742581963534
8,2.3422192990779878,0.121859242580831,56.18314981460571,11.648351669311523,65.1112289428711,0.37915455028414724
9,2.2475737810134886,-0.01903094221415811,43.46153841018677,11.648351669311523,65.1112289428711,0.8626619171351194
10,2.0834223330020905,-0.18291100226342677,44.963980531692506,11.648351669311523,65.1112289428711,0.8714627489447594
11,2.0460371673107147,-0.18594609014689922,60.32783918380737,13.786934995651245,67.10349311828614,1.8810447812080384
12,2.032151234149933,-0.14800736252218483,43.86813182830811,14.407814025878906,67.68189239501953,1.7122123688459396
13,2.0401241958141325,-0.07764520905911922,43.03540910547599,14.407814025878906,67.68189239501953,1.5123075813055038
14,1.9844279348850251,-0.07626996655017133,60.47069599628448,14.407814025878906,67.68189239501953,0.679999590665102
15,1.9468901455402374,-0.07391437748447055,51.181929206848146,14.407814025878906,67.68189239501953,0.1111779578030109
16,1.9487975597381593,-0.05135855199769135,48.391330814361574,14.407814025878906,67.68189239501953,0.04059162996709343
17,1.9302957326173782,-0.04981868667528027,50.44200239181519,22.07142894268036,75.23338527679444,0.03699945006519552
18,1.911336100101471,-0.046630186866968806,48.96581192016602,10.832722663879395,80.69939422607422,0.0
19,1.8958098083734511,-0.0386470441706478,49.08852291107178,10.766178250312805,80.69939422607422,0.11351287066936491
20,1.885319072008133,-0.035552735440432956,50.672161388397214,11.396825265884399,79.16219387054443,0.06968828365206714
21,1.8748283237218857,-0.03171802395954722,49.67155065536499,11.184371471405028,77.59052886962891,0.027300565317273116
22,1.8635364890098571,-0.02917249831371003,48.907814502716064,10.158730506896973,76.99986381530762,0.0
23,1.853999450802803,-0.02606690311804411,68.31807050704955,10.102564001083376,78.64842796325684,0.46716295182704926
24,1.8660161197185516,-0.005252997324714631,33.01343122785911,11.30647087097168,79.6812744140625,1.6897612392902375
25,1.8658635139465332,-0.001007257215678685,36.4200243473053,11.30647087097168,79.6812744140625,1.2048170283436774
26,1.8721579611301422,0.00837854799319756,80.58058552742004,39.872405004501346,84.03322982788086,2.334377881884575
27,1.9414349764585495,0.0705872923135757,43.73687410354614,53.626373291015625,85.89835357666016,0.6286314219236374
28,1.9727927446365356,0.08043598104268307,32.23687426480465,53.626373291015625,85.89835357666016,2.0055138140916826
29,1.958563506603241,0.04494707202538844,38.10744827748276,57.707571506500244,88.9787244796753,2.1998507916927337
30,1.8247016727924348,-0.09955304330214856,39.97924280203879,66.25396995544433,83.63347091674805,1.1362064197659492
31,1.5159306615591048,-0.3657184295356274,82.76678886413575,84.83516693115234,70.1344223022461,0.8033909574151039
32,1.6367458015680314,-0.1722520155832171,36.714896080037576,84.83516693115234,70.1344223022461,1.0668773248791694
33,1.8227942645549775,0.05842531742528079,52.19474992752075,84.83516693115234,70.1344223022461,0.14763858057558532
34,1.8735312879085542,0.13109539579600094,50.86507949829102,84.83516693115234,70.1344223022461,0.029455873370170572
35,1.8794060915708541,0.14509804807603358,51.0,85.96703510284424,68.60219860076904,0.00574748739600181
36,1.8713950157165526,0.09157490963116285,50.48107442855835,89.86569213867188,63.32453918457031,0.16703635174781079
37,1.8509094446897507,0.00707544869992488,49.11111116409302,42.1245431303978,63.019680213928225,0.024067603796720485
38,1.8373668581247329,-0.025755155598744722,50.1697193145752,7.590353953838348,74.24613418579102,0.00574748739600181
39,1.8341624349355699,-0.024811368016526076,49.18315019607544,8.463980436325073,82.86664066314697,0.015805590339004978
40,1.8229468643665314,-0.0262395151890814,49.88339405059814,7.318070721626282,87.83761844635009,0.010058102943003168
41,1.8078020602464675,-0.02918019448406991,49.69841270446777,7.573259925842285,92.43929824829101,0.007184359245002263
42,1.797463920712471,-0.02759813168086108,49.786324691772464,8.712454128265382,91.74013214111328,0.0
43,1.789796131849289,-0.02534970580600198,49.3308913230896,8.560439872741698,86.13387260437011,0.01724246218800543
44,1.7854090929031372,-0.01998874009586867,50.37240552902222,7.820512700080871,82.54637413024902,0.0
45,1.7855235308408737,-0.011238735751248842,49.67826614379883,8.61050033569336,80.41120758056641,0.0
46,1.7773979872465133,-0.012722164834849493,49.10866899490357,9.586080479621888,78.49431552886963,0.0
47,1.7656865119934082,-0.018282895139418505,48.45115985870361,8.893773078918457,76.72688598632813,0.0
48,1.7551957666873932,-0.022054323367774433,50.609279537200926,8.79731364250183,73.05342292785645,0.018679334037005883
49,1.7471083670854568,-0.022950655315071292,50.369963550567626,9.987789964675903,70.89841403961182,0.004310615547001358
50,1.73844875395298,-0.02306679976172741,50.564102458953855,10.488400602340699,73.7001895904541,0.0
51,1.7276909619569778,-0.02398503436706955,48.43956060409546,10.924298071861267,75.30851917266845,0.0
52,1.7191839426755906,-0.0228045391850173,50.64407825469971,9.332112503051757,76.19637336730958,0.0
53,1.7149113297462464,-0.01850134930573399,49.040293025970456,9.566544818878175,77.40157470703124,0.0
54,1.7057558089494704,-0.01959296334534878,49.148962306976316,9.9658123254776,77.91886863708496,0.0
55,1.6955702394247054,-0.021331158326938694,50.80830268859863,10.013430738449097,78.84494438171387,0.03592179678380487
56,1.6863002449274063,-0.0221699452027678,48.68131856918335,9.91452980041504,79.65631103515625,0.024426821433007694
57,1.6815698146820068,-0.018902045139111524,50.311965751647946,10.630646777153014,81.75137233734131,0.02909665554761885
58,1.6845072716474534,-0.00902874197927298,49.827228450775145,10.212453842163086,85.34737758636474,0.01724246218800543
59,1.6901531964540482,0.0011579441099456651,50.19719152450561,9.290598320961,90.39257507324217,0.0
60,1.6882076501846313,0.0013864119860045,48.462148666381836,9.210012292861938,92.93604850769043,0.0
61,1.6839350432157516,-0.0019121756065359403,50.27594633102417,10.732600593566895,92.37999725341797,0.018679334037005883
62,1.6773354321718217,-0.008060380851384202,49.48962135314942,10.985347938537597,83.29612560272217,0.018679334037005883
63,1.6686757981777192,-0.014836825919337512,49.57326002120972,11.534798574447631,78.88385772705078,0.0014368718490004526
64,1.6597109854221344,-0.019049252383410865,49.023809623718265,11.761904883384705,77.06296482086182,0.0
65,1.6534546732902526,-0.01860677450895303,63.61904764175415,11.435897707939148,76.67976760864258,0.07256202846765518
66,1.6315958112478257,-0.03216649037785822,48.30769257545471,12.461538887023925,76.63324584960938,0.3405386243015528
67,1.60527361035347,-0.04553016489371655,40.07020764350891,12.576313018798828,76.62834930419922,0.059450572915375186
68,1.6169087916612626,-0.020784595441364167,47.62087917327881,12.576313018798828,76.62834930419922,0.04544107280671593
69,1.6648228406906127,0.03209001324139531,50.066544723510745,25.550671100616455,66.22457122802734,0.0
70,1.7241813361644744,0.08362547336146231,46.9609281539917,10.372405219078065,65.7382984161377,0.0
71,1.7585909485816955,0.09780810661613935,48.519536304473874,10.4371187210083,79.16539916992187,0.0
72,1.7480620741844177,0.05940614882856603,51.30280799865723,11.647130537033082,81.86136741638184,0.018679334037005883
73,1.7313150465488434,0.01652426628861571,49.508546924591066,11.460928034782409,76.88957920074463,0.01724246218800543
74,1.7191457778215409,-0.012885617499705359,49.35897445678711,8.605617046356201,74.58161964416504,0.0
75,1.7059083938598634,-0.029672849923372206,49.728937435150144,8.916361427307129,74.42139549255371,0.028019001521170116
76,1.6892757892608643,-0.03675817539915436,49.98962144851684,8.261905074119568,75.19436359405518,0.0
77,1.6763054311275483,-0.03499798923730844,50.30586061477661,8.284493446350098,75.65080261230469,0.004310615547001358
78,1.6646702468395234,-0.03296057218685741,48.71794862747193,8.487790083885193,76.172527885437,0.015805590711534014
79,1.653530979156494,-0.030815065465867448,50.448717975616454,8.600732803344727,78.52794818878174,0.0
80,1.6420102536678314,-0.029373086430132322,48.91391944885254,9.512820768356324,81.27826194763183,0.0
81,1.630527663230896,-0.028564722184091736,50.1153844833374,9.289988136291502,84.45259666442871,0.0
82,1.6196554541587829,-0.028086027037352256,49.56532354354859,9.524419927597046,85.58745403289795,0.0
83,1.6115298986434936,-0.025154046760871945,48.27594614028931,9.046398305892945,84.26193542480469,0.0
84,1.6048921287059783,-0.02161166132427749,50.82844934463501,8.389499545097351,82.75232105255127,0.0014368718490004526
85,1.595202484726906,-0.021834498178213813,49.63919401168823,9.654456567764283,80.7653305053711,0.01724246218800543
86,1.5851695120334626,-0.02248404221609232,48.57081804275513,9.065934085845948,78.12631378173828,0.0
87,1.579103997349739,-0.019970121141523096,49.608058834075926,8.681318759918213,76.19643592834473,0.0
88,1.5709402799606322,-0.02013478162698444,50.60500612258911,9.352869510650635,74.37850723266601,0.0
89,1.5657902747392656,-0.017261388548649816,49.3772891998291,9.175824165344238,74.30340576171875,0.0
90,1.5609073042869568,-0.014805971388705028,49.18498191833496,9.08913278579712,75.2797248840332,0.0
91,1.5510650902986527,-0.017933046701364183,50.51892528533936,9.204517436027526,76.76207790374755,0.018679334037005883
92,1.5414517670869827,-0.020338590210303632,48.52808332443237,9.05494499206543,79.37455749511719,0.04346537310630079
93,1.530274358391762,-0.023883153032511432,60.643467569351195,9.067765307426452,82.59557800292968,0.4813520649448037
94,1.4971236288547516,-0.04616363039240237,23.28327241204679,9.157508850097656,82.9301986694336,0.8418272778391838
95,1.5160451054573059,-0.014331038287491524,64.63553120545112,9.157508850097656,82.9301986694336,0.7161009952425956
96,1.5906247198581696,0.060404252121224966,68.12271065711975,9.926739573478699,83.54040622711182,1.228166188299656
97,1.6154973208904266,0.07297717928886413,38.25641050338745,10.622710227966309,84.09249877929688,1.9424710750579834
98,1.6419721066951751,0.08172542992979284,47.26678876876831,10.622710227966309,84.09249877929688,0.34431040585041045
99,1.675885808467865,0.08564834520220753,51.13003664016723,10.622710227966309,84.09249877929688,0.6685046166181564
100,1.6656621009111405,0.04061552528291937,45.816849899291995,10.622710227966309,84.09249877929688,1.0361641854047776
101,1.64120914041996,-0.003305106901188968,49.95482320785523,10.622710227966309,84.09249877929688,0.16541987042874093
102,1.6243476629257203,-0.025094265071675115,49.25702066421509,10.622710227966309,84.09249877929688,0.08926566373556846
103,1.6126743495464324,-0.03518120925873515,49.37790012359619,10.622710227966309,84.09249877929688,0.12123606204986567
104,1.6013061851263046,-0.03531127581372853,49.15201482772827,10.622710227966309,84.09249877929688,0.0186793342232704
105,1.5979491472244265,-0.023604618897661543,49.632478427886966,10.622710227966309,84.09249877929688,0.014368718490004526
106,1.595850992202759,-0.014845963800325952,49.902930641174315,37.42124443054199,79.64338836669921,0.010058102943003168
107,1.5791039735078811,-0.022773947520181508,49.637362480163574,39.61660466194153,70.89900054931641,0.01724246218800543
108,1.5618228673934937,-0.03040786585770544,49.607447910308835,3.0525031089782715,57.41626739501953,0.0
109,1.5491958290338517,-0.03271687468513843,49.73260078430176,3.1398046910762787,49.27343940734863,0.0
110,1.537369924783707,-0.033467077836394264,49.475580024719235,3.1214896738529205,47.70171928405762,0.0
111,1.5276039868593216,-0.030067224055528603,49.774114990234374,3.028083086013794,51.99428367614746,0.05765448156744239
112,1.5194021463394165,-0.02535122805275019,49.88949918746948,2.987179547548294,70.39955844879151,0.0
113,1.509712529182434,-0.023995661735534624,49.18131875991821,3.1990232467651367,82.079345703125,0.024426821433007694
114,1.5013580679893495,-0.02230965807102616,49.86263732910156,3.2020757496356964,82.22194881439209,0.0
115,1.494338795542717,-0.020259578619152258,49.673382091522214,3.3412698805332184,86.89883003234863,0.03484414294362066
116,1.4870143681764603,-0.019366421410813878,49.50427360534668,3.3815629184246063,83.2295051574707,0.01975698824971913
117,1.4761803060770036,-0.02183612394146616,50.11538496017456,4.145909637212753,80.23347988128663,0.0896248813718557
118,1.4672536224126815,-0.02209054757840926,49.67338228225708,4.366911017894745,78.32850513458251,0.02442682161927221
119,1.4592425286769868,-0.021776155335828606,49.6715503692627,4.445665419101715,78.18945960998535,0.0
120,1.4496673375368117,-0.02268053949810559,49.782051467895506,4.161782824993134,78.63841915130615,0.012931846827268589
121,1.4416562467813492,-0.021606111340224686,49.48962163925171,3.6678876876831055,79.13307113647461,0.0
122,1.4320429116487503,-0.022299776086583675,49.4151406288147,3.8241758346557617,80.28078765869141,0.034844141080975506
123,1.4244514137506485,-0.021210657851770457,49.91025638580322,4.119047665596009,81.70180721282959,0.0804648237302899
124,1.4163640439510345,-0.020700244884937942,49.58669109344483,5.318681478500366,84.89073257446289,0.07812990657985207
125,1.4089251518249513,-0.0197753224987536,49.669108390808105,4.1367521524429325,87.0664436340332,0.0
126,1.4025544047355651,-0.01822494161315256,49.476801204681394,4.044566679000854,88.44271678924561,0.0
127,1.3963743954896928,-0.016866200580261594,49.73809518814087,4.033577537536621,90.95223293304443,0.0
128,1.3997314244508743,-0.007270870171123496,49.64041547775268,3.910866916179657,93.4763027191162,0.0
129,1.416898101568222,0.012377358291996593,49.32722835540771,3.956044054031372,93.65764427185059,0.0
130,1.4219717770814895,0.015694093261845364,50.01220970153808,4.001221060752869,91.56692771911621,0.0
131,1.4133884817361833,0.004766030683094827,49.42429780960083,3.8046398162841797,89.61205596923828,0.0
132,1.4053392171859742,-0.0052721443149493525,49.994505405426025,3.810744822025299,89.83645782470703,0.0
133,1.3979003340005876,-0.013710478250868555,49.300977039337155,3.6587301790714264,89.92635726928711,0.012931846641004075
134,1.3935133218765259,-0.015514940279535894,49.84004878997803,3.5671550929546356,92.36465721130371,0.0
135,1.3923307061195374,-0.01107178584206844,49.37545785903931,3.680708199739456,93.67932682037353,0.007184359245002263
136,1.386875510215759,-0.010930457548238277,50.022588443756106,3.3882784247398376,92.72425422668456,0.0
137,1.3809625566005708,-0.011769682192243575,50.08608045578003,3.614163637161255,91.19526233673095,0.11997879575937982
138,1.3761558741331101,-0.011922433995641713,49.140415000915525,6.60927973985672,88.77995052337647,0.12877963799983258
139,1.3833658814430236,-0.0010935505370070864,48.65872993469238,9.352869510650635,86.58229446411133,0.12357097789645191
140,1.4387951225042344,0.051240517571568445,50.7936508178711,10.59829044342041,86.14501190185547,0.0
141,1.477629944682121,0.07521582245826716,49.76007337570191,10.59829044342041,86.14501190185547,0.0
142,1.4640110462903977,0.04382261466234918,49.96092805862427,11.604395842552185,85.89908256530762,0.0
143,1.4522232592105866,0.016412734205368856,49.38095245361328,3.6593406796455383,87.43226165771485,0.0
144,1.4479888319969176,-0.00246141128518501,49.61904783248902,3.584859609603882,92.76832695007325,0.0
145,1.439405506849289,-0.018137711868621356,50.069597244262695,3.8345543444156647,96.15246124267578,0.0
146,1.4313180804252625,-0.020350141124799784,49.2216118812561,3.741147756576538,96.61064033508299,0.0
147,1.4278847575187683,-0.015289041493087949,50.01159963607788,4.074481117725372,96.63647708892822,0.0
148,1.4246802836656571,-0.012337320623919321,49.09584875106812,4.237484848499298,95.43345012664795,0.014368718862533561
149,1.420751044154167,-0.010817355918697966,49.37790002822876,4.096459269523621,90.1290225982666,0.0
150,1.4143803268671036,-0.011899994546547481,50.262515449523924,4.6752138376235965,83.2228437423706,0.0
151,1.4077044129371643,-0.013749226485378987,49.454823112487794,4.4810744524002075,78.27177238464355,0.0
152,1.4020203202962875,-0.014468036522157435,49.55860824584961,4.278388404846192,76.8542251586914,0.0
153,1.3960310518741608,-0.015042251278646232,49.92796106338501,4.360195577144623,77.20431709289551,0.0
154,1.3905377209186554,-0.014549414115026532,49.311966037750246,3.9926741421222687,78.68341827392578,0.0
155,1.3869518011808393,-0.01232082680799061,49.845543384552,4.047619044780731,79.61698341369629,0.0
156,1.3809244185686111,-0.013027615030296088,49.95787553787231,4.117216110229492,79.90971870422364,0.0
157,1.3735999643802645,-0.014831657265312912,49.32966995239258,3.873015880584717,80.55983276367188,0.0
158,1.3680303335189818,-0.014731558156199693,49.92796106338501,4.15750914812088,81.15537185668946,0.0
159,1.3632999658584595,-0.013981477427296274,49.55006113052368,4.268620252609253,81.42770538330078,0.0
160,1.357539591193199,-0.01412534611299627,49.39255199432373,4.087912082672119,82.31031188964843,0.0
161,1.3524277418851853,-0.013396530644968105,50.07142868041992,4.438339614868164,83.35812911987304,0.0
162,1.3465910792350768,-0.013686078484170097,49.30891351699829,4.450549578666687,82.19712371826172,0.0
163,1.3422040313482286,-0.012789225718006452,49.63553113937378,4.427350401878357,80.0949140548706,0.0
164,1.3381985038518907,-0.011730833398178183,50.124542236328125,4.5628817081451425,78.96830291748047,0.0
165,1.331980335712433,-0.012832039291970392,49.228327083587644,4.422466397285461,78.65254135131836,0.0
166,1.3269066184759137,-0.012802599859423888,49.5390721321106,4.634920597076416,79.10431518554688,0.0
167,1.322138139605522,-0.01258999237325038,50.059829521179196,4.727106237411499,80.48249340057373,0.0
168,1.3173314809799195,-0.01251456502359356,49.37728929519653,4.060439658164978,83.29415454864503,0.0
169,1.3120670318603516,-0.012580853374674872,49.84554357528687,4.431013405323029,89.85438213348388,0.0
170,1.3102740854024888,-0.00959107773378487,49.7393159866333,4.313797295093536,93.2119348526001,0.0
171,1.3085955381393433,-0.007282358128577422,49.314408206939696,4.249084234237671,94.8249053955078,0.0
172,1.3046281456947326,-0.007716614217497357,50.144688510894774,4.37851049900055,95.17237453460693,0.0
173,1.30314040184021,-0.005941338767297517,49.121489715576175,4.335775446891786,93.30124359130859,0.0
174,1.3025299936532975,-0.004267833224730515,49.974359130859376,4.495116007328034,90.05483856201172,0.0
175,1.3000885248184204,-0.004724024591268914,49.71672744750977,5.103785037994385,84.28277359008788,0.0
176,1.299897775053978,-0.0030179615481756225,49.19169721603394,4.8369964241981505,81.59305267333984,0.0
177,1.2971510887145996,-0.0041691961698233524,50.224053382873535,4.79792445898056,80.64954471588135,0.0
178,1.2934125691652298,-0.006247777445241752,49.512210273742674,5.05494499206543,81.63618698120118,0.0
179,1.2898647785186768,-0.0074949423782527,50.524419689178465,4.62332124710083,82.53831329345704,0.019577378593385212
180,1.286317026615143,-0.008466683630831492,53.746031665802,7.144688558578491,84.60242595672608,1.1965550176799298
181,1.284371480345726,-0.007286358055716801,35.99206346911378,22.858364009857176,86.15601634979248,1.705926077067852
182,1.3144322037696838,0.023343845357885525,58.98473768234253,27.545787811279297,87.08307838439941,1.6330048751085997
183,1.3839381128549575,0.08242727527394887,51.750915908813475,27.545787811279297,89.15304565429688,0.10129946451634161
184,1.4812921553850174,0.15145482830703255,48.15567760467529,27.545787811279297,89.15304565429688,0.05226621162146328
185,1.5521713972091675,0.17542964220046994,49.67032976150513,27.575091552734374,88.7036979675293,0.01149497479200362
186,1.5551850885152816,0.12370860446244474,49.43956031799316,27.64346694946289,87.65522003173828,0.012931846641004075
187,1.5432447344064713,0.06127310292795294,49.837607097625735,20.559218072891234,86.99967956542969,0.0
188,1.532258063554764,0.012322746337485981,49.95054950714111,3.96214896440506,84.10469017028808,0.0
189,1.5224539935588837,-0.016356627375353087,49.59096441268921,4.033577531576157,82.3354097366333,0.0
190,1.512840661406517,-0.02490384248085315,49.305860900878905,4.097680091857911,82.03749542236328,0.0
191,1.50399030148983,-0.024004381103441073,50.355921840667726,4.336385822296143,82.30659999847413,0.0
192,1.495521405339241,-0.022508924780413463,49.716117191314694,4.832723021507263,84.34579124450684,0.0
193,1.4888454765081405,-0.020098607940599266,49.31623945236206,4.6910868883132935,86.51328239440917,0.0
194,1.4831614017486572,-0.017530584335327108,49.10805873870849,5.163614225387573,89.42487411499023,0.0
195,1.4776681005954742,-0.015630275616422253,50.18315019607544,5.4700854301452635,92.76322193145752,0.0
196,1.473013997077942,-0.01361047539394344,49.57570247650146,5.637973141670227,94.56405639648438,0.007184359245002263
197,1.4690084517002107,-0.011931576929055115,49.43772926330566,5.396825456619263,95.28546428680419,0.0
198,1.4648121535778045,-0.01109992237761612,50.09035396575928,5.8705737590789795,94.91473693847657,0.0
199,1.4582125276327134,-0.012870868179015773,49.37118444442749,6.109889984130859,92.94112854003907,0.0
200,1.4518799066543577,-0.014054011134430722,49.67216100692749,6.131257677078247,90.63962688446045,0.0
201,1.4453184753656387,-0.01535461165476586,49.521978092193606,6.117216229438782,89.04610347747803,0.0
202,1.4399776995182039,-0.014989145332947321,49.899267578125,6.263736367225647,88.18845024108887,0.0
203,1.4347514271736146,-0.014309539669193275,49.27533578872681,6.179487204551696,86.92868194580078,0.0
204,1.4294106930494308,-0.01371351494453844,50.00366296768188,6.449328470230102,86.86549949645996,0.0
205,1.4248328894376754,-0.012744748662225849,49.70573873519898,6.39316234588623,87.5178207397461,0.019038552418351163
206,1.4196447640657426,-0.012625540327280707,49.61050090789795,6.431623995304108,90.70083332061768,0.002873743698000905
207,1.4144947946071624,-0.012685976969078134,49.183761024475096,6.123931622505188,93.46122245788574,0.0
208,1.4087725639343263,-0.01319642295129592,50.35775375366211,6.251526355743408,95.08275756835937,0.0
209,1.4067506790161135,-0.010362561536021482,49.80158729553223,6.080586194992065,96.44791030883789,0.015805590339004978
210,1.403126609325409,-0.009602272510528517,48.93772897720337,6.080586194992065,98.04085159301759,0.0
211,1.398281815648079,-0.010139909596182347,50.145909786224365,6.17582426071167,96.2469871520996,0.0
212,1.3947340250015259,-0.00953876290004695,49.24297933578491,6.177045130729676,89.41514015197754,0.0
213,1.3901180773973463,-0.01035945005714888,49.553724098205564,5.870573997497559,84.45902404785156,0.0
214,1.3864940404891966,-0.010125919803976953,50.29731369018555,6.212454319000244,80.4381088256836,0.0
215,1.3826410889625549,-0.009878253354690917,49.75641002655029,6.2783883810043335,76.83516597747803,0.0
216,1.378368479013443,-0.010074950102716628,49.65140447616577,6.401098906993866,74.54598140716553,0.0
217,1.3734855264425279,-0.010882897744886514,49.188644599914554,6.739926719665528,74.80370178222657,0.00574748739600181
218,1.367458114027977,-0.012474725442007128,50.35531129837036,6.105006206035614,75.27831859588623,0.0
219,1.3636814385652543,-0.01168775141704821,49.772894096374515,6.384615325927735,76.05069580078126,0.0
220,1.3606677293777465,-0.010246620839461621,49.595238018035886,6.448107385635376,78.16875991821288,0.0
221,1.356967383623123,-0.009653070778585912,49.35347995758057,6.470085322856903,83.04338665008545,0.0
222,1.3522751420736312,-0.010036702500656216,49.26190481185913,6.639804482460022,84.90549144744872,0.0
223,1.347544801235199,-0.010663700662553273,50.210622501373294,6.694749534130096,83.58403244018555,0.0
224,1.3429288417100909,-0.011272774892859123,49.28754577636719,6.385836243629456,82.13782596588135,0.0
225,1.3399533033370972,-0.010057959076948422,49.60561637878418,6.687423527240753,81.57715606689453,0.0
226,1.3370159208774566,-0.008913797116838358,49.959707260131836,6.7527472376823425,82.57756481170654,0.0
227,1.3341166198253631,-0.007966793468221984,49.768009662628174,6.2380951046943665,86.07778453826904,0.0
228,1.3301873922348022,-0.008361431513912939,48.965201473236085,6.000610482692719,90.56509456634521,0.0
229,1.3264869809150694,-0.008686744049191435,49.46092834472656,5.346764504909515,90.96631622314452,0.0
230,1.323511481285095,-0.008375064551364591,49.61538438796997,5.6147741913795475,88.55311660766601,0.0
231,1.3214895755052567,-0.007175186020322096,50.13186817169189,5.496947407722473,84.41677017211914,0.007184359245002263
232,1.3196966648101807,-0.006046220241114448,49.74053745269775,5.142857074737549,77.88697662353516,0.0
233,1.3158055365085601,-0.0070603401865809694,49.49023180007934,5.210012137889862,74.01181678771972,0.0
234,1.3137073576450349,-0.00640630578855048,49.97374858856201,5.280830204486847,71.12553539276124,0.0
235,1.3101214736700058,-0.007431437994819085,49.72344312667847,5.186202681064605,70.26564292907715,0.0
236,1.3061540305614472,-0.008503889106213998,49.84065914154053,5.390109920501709,72.8975715637207,0.0
237,1.3031785249710084,-0.00825597563525657,49.86568994522095,5.518925428390503,75.7547737121582,0.0
238,1.3002792239189147,-0.007966189808212173,49.2619047164917,5.894383370876312,79.37533569335938,0.007184359245002263
239,1.2961974054574967,-0.008760647405870207,49.247863578796384,6.170329618453979,81.17134323120118,0.0
240,1.2938703298568726,-0.007612715463619628,49.967033004760744,5.99084255695343,81.06209812164306,0.0
241,1.2923825919628142,-0.006140066625084673,49.84432239532471,6.1978020668029785,80.13807373046875,0.0
242,1.2907421588897705,-0.00515507970703761,49.050671672821046,6.341880202293396,78.48231658935546,0.0
243,1.2883770316839218,-0.005134204600471958,49.934676837921145,6.3003661870956424,77.80113258361817,0.0
244,1.285401463508606,-0.0058293104288167875,49.70207595825195,6.91452989578247,77.53443565368653,0.0
245,1.2837611436843872,-0.00541241851169612,49.29731397628784,6.568986415863037,77.43809986114502,0.0
246,1.280747398734093,-0.00632008726242925,50.15079355239868,6.2960927248001095,80.34687156677246,0.0
247,1.2778862714767456,-0.0066747767734340905,49.585470294952394,6.394993841648102,84.4142713546753,0.0
248,1.2753685384988784,-0.006578533840365661,49.286935329437256,6.017704629898072,89.98912811279297,0.0
249,1.2734992504119873,-0.00595609801821406,50.07326002120972,6.009768104553222,92.71189212799072,0.0
250,1.2726218700408936,-0.004522135137813125,49.11294250488281,5.822954714298249,94.30071773529053,0.0
251,1.2707144111394881,-0.004292455356335225,49.714285373687744,5.657509207725525,94.79463996887208,0.0
252,1.2693029642105103,-0.003802184830419667,49.66849822998047,5.929181957244873,94.547802734375,0.0
253,1.2686163187026978,-0.00296803768724198,49.750305557250975,5.894994020462036,94.22378005981446,0.0
254,1.2693792581558228,-0.00112971691851267,49.524419975280765,5.501831483840943,94.02934265136719,0.0
255,1.2685018450021743,-0.001281610985461115,49.55189228057861,5.499999988079071,92.24970436096191,0.0
256,1.2660222053527832,-0.0028121176408603525,49.97313795089722,5.634920620918274,87.93604774475098,0.0
257,1.2654118537902832,-0.0025917734426911298,49.77838821411133,5.540903449058534,87.56839981079102,0.0
258,1.2657933235168457,-0.0015645299572497099,49.77167282104492,5.435287022590638,90.03713092803955,0.0
259,1.2630466252565384,-0.003433847829000977,49.51709423065186,5.7979243516922,91.04425926208496,0.00574748739600181
260,1.2620929479599,-0.00300660474458704,49.813186931610105,6.291819310188293,88.08846817016601,0.0
261,1.2602237194776535,-0.003704357868991737,49.68681297302246,6.054945170879364,86.18657932281494,0.0
262,1.258545160293579,-0.0041313330410047856,49.28449296951294,6.432234382629394,85.62882385253906,0.0
263,1.2570573925971984,-0.004056891379877872,50.301587390899655,7.035408878326416,85.24087200164794,0.0
264,1.2541199922561646,-0.005207015213090872,49.315018272399904,6.863858330249786,83.57588233947754,0.0
265,1.2527848482131958,-0.004700750415213358,49.955433177947995,6.641025495529175,83.94841499328614,0.0
266,1.2523270487785338,-0.003444115875754455,49.50671539306641,6.691086769104004,84.82978897094726,0.0
267,1.2502288818359375,-0.003962816501734729,50.0763126373291,6.752747321128846,85.41781558990479,0.0
268,1.2474440932273865,-0.0048789484193548106,49.26373586654663,6.460317397117615,86.31288375854493,0.0
269,1.2460707426071167,-0.004480644641444032,49.507326221466066,6.332112264633179,87.4834716796875,0.0
270,1.2443159162998199,-0.004650736704934335,49.8388277053833,6.44749686717987,87.15208339691162,0.0
271,1.2436292171478271,-0.0035650548525154027,49.290598487854005,6.6288155794143675,85.2298038482666,0.0
272,1.2437436670064925,-0.0019216379876524476,50.02380952835083,6.5873015999794005,83.14067573547364,0.0
273,1.2448881655931472,0.0001076887056114675,49.63980474472046,7.036629855632782,82.4610071182251,0.0
274,1.2441251665353774,-0.00025821853341766,49.7625150680542,6.796092629432678,82.5788501739502,0.01041732095181941
275,1.2432477474212646,-0.000776874442089975,56.5989013671875,6.422466278076172,83.04498291015625,0.21499194316565987
276,1.2347407430410384,-0.008595416857860933,41.81074523925781,6.422466278076172,83.04498291015625,0.3938824854791164
277,1.224135586619377,-0.015954629075713402,43.9175825717859,6.639194011688232,83.18329429626465,1.06975107640028
278,1.2559511095285416,0.017209480042220046,54.246031665802,8.156288146972656,84.15147399902344,0.736396798118949
279,1.2901318401098252,0.045460535958409244,49.58119659423828,23.84859619140625,84.3919921875,0.242651729658246
280,1.3384655296802521,0.07997139804065224,51.07631254196167,43.02808380126953,84.68595886230469,0.114590529538691
281,1.3815729320049286,0.09834993388503788,49.122100067138675,43.02808380126953,84.68595886230469,0.00574748739600181
282,1.378711822628975,0.06429749783128495,49.261904621124266,43.02808380126953,84.68595886230469,0.0
283,1.363109228014946,0.022057599783875018,50.88339424133301,14.175824642181393,57.755896377563474,0.0
284,1.3560136675834653,-0.001779758926909361,50.18253965377808,9.08424949645996,53.00353240966797,0.008980449102818958
285,1.358874797821045,-0.007882077386602699,48.68009805679321,7.02319927215576,49.659262084960936,0.043465373665094335
286,1.3571199566125869,-0.00838224649196484,48.86568984985352,3.931623935699463,50.508863830566405,0.0
287,1.3576159119606017,-0.00273554156083259,49.8846155166626,3.931623935699463,54.844608306884766,0.0
288,1.3552888482809065,-0.0023140250321375243,50.68803386688232,4.0231992363929745,61.53220109939575,0.0
289,1.3586840391159056,0.00156145438377279,50.13553152084351,4.688034307956696,66.96304340362549,0.0
290,1.367572546005249,0.0091366154607385,48.78388290405273,5.396825313568115,70.93570766448974,0.0
291,1.3673055171966553,0.0070207300828769425,49.61355333328247,5.677655589580536,75.58840065002441,0.0
292,1.3692129254341125,0.006735232332721308,49.55738697052002,5.714285850524902,77.72903003692628,0.0
293,1.371005892753601,0.005868447420652907,49.61965799331665,5.586080729961395,77.03828296661376,0.0
294,1.3737144231796266,0.005292160157114225,49.75579967498779,5.451159918308258,76.7595199584961,0.0
295,1.3748207092285158,0.004232606448931572,49.715506839752194,5.567155027389527,76.61734752655029,0.0
296,1.3702810734510422,-0.0013618839529954073,49.7222222328186,6.339438343048096,76.42386169433594,0.0
297,1.3658559262752532,-0.005719819781370405,49.54884023666382,7.053113508224487,75.21149005889893,0.0
298,1.3641773462295532,-0.006319567142054385,49.34798517227173,6.489621579647064,72.98869667053222,0.0
299,1.3666570097208024,-0.0024023077246965547,50.31807088851929,5.952991390228272,71.51451263427734,0.0
300,1.369785150885582,0.0019169272287399002,49.49755783081055,6.328449344635009,71.49228019714356,0.0
301,1.3721503376960755,0.004817624867428045,49.415140342712405,6.211843729019165,74.94706439971924,0.0
302,1.3814966291189195,0.012322689103893895,50.023809337615965,6.239316129684449,78.84212913513184,0.0
303,1.3836710661649705,0.010781792644411283,49.44932861328125,5.963369846343994,80.12834320068359,0.0
304,1.3785210818052291,0.0024038477982685222,49.44932823181152,5.656898713111877,79.93076095581054,0.0
305,1.374401092529297,-0.003210594535630605,49.954822826385495,6.280830383300781,79.68877639770508,0.0
306,1.370662549138069,-0.00743124303407962,49.6385835647583,6.42612943649292,78.22987289428711,0.0
307,1.3672292232513428,-0.009244594164192625,49.57081832885742,6.437118434906006,77.25811386108398,0.0
308,1.3687169551849365,-0.004630626976722797,50.20818071365356,6.136141538619995,78.16101455688477,0.0
309,1.3681447505950928,-0.0026802267617312752,49.545787715911864,6.403540861606598,80.12137279510497,0.0
310,1.364978477358818,-0.003930250386474603,49.81440773010254,6.625152540206909,80.95030364990234,0.0
311,1.3644825607538222,-0.0027914783830055474,51.31074495315552,6.617826461791992,81.30081176757812,0.41489673405885696
312,1.3564332932233811,-0.009452014521229965,47.84004859924316,6.617826461791992,81.30081176757812,0.3910087376832962
313,1.3378170073032378,-0.02384688379243013,48.9993896484375,6.566544485092163,81.4671859741211,0.2994081676006317
314,1.3406018137931823,-0.01448608389837316,49.50732593536377,7.394993925094605,85.51374607086181,0.2676173791289329
315,1.3961455166339873,0.04142273990437384,44.90415127878077,7.920634686946869,91.8885663986206,1.0517901681363582
316,1.4915539920330048,0.12097733300179239,56.43406590851955,8.083027839660645,93.02325439453124,2.552782469987869
317,1.5539262026548386,0.14993079937994477,48.99023208618164,8.083027839660645,93.02325439453124,0.38759617581963535
318,1.5838724970817566,0.13532596938312053,49.547008228302005,10.533577489852906,94.2134162902832,0.0
319,1.6029084414243697,0.1023038294166326,49.65506706237793,5.934065914154053,95.11754150390625,0.0
320,1.5928373008966445,0.045172404078766666,49.34126987457275,4.80952376127243,95.41607418060302,0.0
321,1.5698339849710465,-0.0051063603881630025,49.7460319519043,3.862637370824814,95.6161684036255,0.0
322,1.563158056139946,-0.01878498345613476,50.02197799682617,3.6874237060546884,96.15384674072266,0.0
323,1.5884884148836136,0.005279622334637647,50.29365072250366,3.6874237060546884,96.15384674072266,0.02298994958400724
324,1.58520767390728,0.00311150140551033,48.26617841720581,3.6874237060546884,96.15384674072266,0.0
325,1.5622424960136414,-0.014500566257629511,49.39438371658325,3.690476208925248,96.16157608032226,0.0
326,1.5464491665363311,-0.024849414452910393,50.23931627273559,4.177045166492462,96.51738739013673,0.0
327,1.5347376972436906,-0.031983792316168505,50.01953592300415,4.859584808349609,93.13827381134033,0.0
328,1.5252769440412521,-0.03222623844631011,49.3705735206604,5.061050176620483,84.88217163085938,0.0
329,1.5180669516324996,-0.0256128578446805,50.015262603759766,5.116605770587921,77.61621608734131,0.0
330,1.5112766027450562,-0.020770378410816154,49.56837635040283,5.617216086387634,74.19280071258545,0.0
331,1.5033417761325836,-0.01938916919752951,49.5982907295227,5.556776702404022,72.83492336273193,0.0
332,1.495712149143219,-0.018868423020467116,49.99999990463257,5.54029301404953,73.69021587371826,0.0
333,1.4878154754638673,-0.01913533885963256,49.80769243240356,5.7521367311477665,77.29494018554688,0.0
334,1.482360279560089,-0.017248150892555665,50.17887649536133,6.050061130523682,83.51863689422608,0.20457462575286622
335,1.4910962134599686,-0.0023723709255136574,47.163003540039064,6.568986415863037,89.28571319580078,0.42405679561197757
336,1.5768913865089416,0.07945043090730902,50.296703243255614,7.449328494071961,91.15874137878419,0.08136286828666922
337,1.6801965326070785,0.15557785704731936,49.79609298706055,7.702686142921448,97.89963455200196,0.00574748739600181
338,1.6903057873249054,0.1259744783863425,50.059218406677246,6.6294260144233705,98.33662300109863,0.0
339,1.6748176574707032,0.07127216849476095,49.80158710479736,7.0329670906066895,84.1911834716797,0.0
340,1.6753135919570923,0.033709594910032996,49.010988807678224,7.0329670906066895,77.15965576171875,0.0
341,1.66249580681324,-0.00812114233849567,49.70451755523682,6.940171003341675,71.676762008667,0.0
342,1.63987395465374,-0.033851791312917996,49.717338180541994,6.944444358348846,68.41247844696045,0.0
343,1.6273995250463487,-0.034580767899751584,49.835775756835936,6.535409069061279,67.7769618988037,0.0
344,1.619045078754425,-0.03126423875801259,49.633699321746825,6.581196665763855,69.7947566986084,0.0
345,1.6086687952280045,-0.029615869745612096,49.387057590484616,6.924297881126404,72.6196216583252,0.0
346,1.5985976725816728,-0.02616788707673547,50.42857131958008,6.379731237888336,75.13267192840576,0.0
347,1.5876110017299652,-0.025753880990669102,49.38705749511719,5.960317444801331,79.97617816925049,0.0
348,1.5771965861320494,-0.0259781502652913,50.00122098922729,5.812576282024383,86.87551288604736,0.0
349,1.5783410102128983,-0.015146029915194936,35.19535998199135,6.905982971191406,91.98966064453126,1.0124558001756667
350,1.5338602870702744,-0.053398079474573014,71.20940157491714,11.457875251770021,91.09990768432617,1.8634431391954422
351,1.0880230054259301,-0.44323140047490595,53.01648349761963,13.333333015441898,90.4295425415039,0.4903325103223324
352,0.9419537931680679,-0.46100933402776717,54.49511613845825,13.333333015441898,90.4295425415039,0.007184359245002263
353,1.0940504193305969,-0.19794768188148731,38.570207595825195,13.333333015441898,90.4295425415039,0.0
354,1.130138549208641,-0.07086163191124792,48.26862020492554,13.333333015441898,90.4295425415039,0.0
355,1.1106448531150819,0.0022924300879822073,50.07264957427979,43.37729005813598,88.51315612792969,0.0
356,1.0932874530553818,0.028106156922876775,50.54090375900269,40.726496410369876,86.35250816345214,0.0
357,1.0794396847486496,-0.011920607160027404,49.04761915206909,6.477411568164825,76.62267780303955,0.0
358,1.0645619004964828,-0.036122783040627784,49.38766813278198,6.407203876972199,74.47070140838623,0.0
359,1.0454496920108796,-0.04170389715582129,53.30158700942993,7.394383192062378,72.54640426635743,0.47237162068486216
360,1.0166859954595566,-0.05248111467808479,48.1477409362793,7.643467426300049,72.20216369628906,0.3356891810894012
361,1.003944531083107,-0.04646008145064108,48.348596000671385,7.643467426300049,72.20216369628906,0.7313677582889795
362,1.0124897122383119,-0.022194532630965068,49.448107433319095,17.372405433654784,71.45922241210937,0.03520336039364335
363,1.0231330335140227,-0.0007365445577306749,49.27594623565674,23.200244235992432,66.15516529083251,0.0
364,1.0314493149518966,0.012980984873138321,50.028693771362306,12.279609036445617,53.815387439727786,0.0
365,1.0218741476535798,0.004006359948834857,49.70024452209473,7.013430881500244,63.65556697845459,0.0
366,1.0061571091413497,-0.012944460683502208,49.23626337051392,6.9829060435295105,72.57996063232422,0.0
367,0.9949034065008163,-0.022623964864760596,49.862026882171634,7.369963264465332,75.0759292602539,0.0
368,0.9876171097159385,-0.024576406506821465,50.04334516525269,7.176434504985809,75.51722278594971,0.0
369,0.9791100770235062,-0.024185385415330482,49.74175834655762,6.880341947078705,76.12418346405029,0.0
370,0.9706793427467346,-0.021900816820561837,49.45543336868286,7.492063522338867,77.32898254394532,0.0
371,0.9654912024736404,-0.01797401038929816,49.794871711730956,7.004273509979248,80.50560131072999,0.0
372,0.9598834171891214,-0.016148404008708844,49.53785095214844,7.324175751209259,83.3121437072754,0.0
373,0.9529786124825478,-0.01610718977171923,50.347374725341794,7.631868124008179,83.66762485504151,0.0
374,0.9467223033308981,-0.01556461865548039,48.910867023468015,7.481074273586273,84.38187618255616,0.0
375,0.9425260230898855,-0.01373149731662118,50.20879135131836,7.684371161460876,87.96616706848144,0.0
376,0.9392071157693863,-0.01166950166225428,49.646520137786865,7.821733832359314,90.93131923675537,0.012931846641004075
377,0.9342860147356987,-0.01138299598824227,49.31379690170288,7.20573867559433,93.31094741821289,0.0
378,0.9302041769027711,-0.010597461764700656,49.091575145721436,7.313797116279602,94.7017906188965,0.0
379,0.927915281057358,-0.008739418396726196,50.01770467758179,7.286324810981751,90.77227039337158,0.0
380,0.9282204687595369,-0.005116352305049023,49.13614149093628,7.010378456115722,85.21382369995118,0.0
381,0.9300134465098383,-0.0010320130510080576,50.31990213394165,7.012820506095887,82.43278903961182,0.0
382,0.9263511940836906,-0.0030009031965164,49.6227108001709,6.789377295970917,81.38907165527344,0.0
383,0.9226126983761788,-0.005168288596905715,49.28327226638794,6.288766777515411,81.49544792175293,0.0
384,0.9195989787578582,-0.006637964094988953,50.12576322555542,7.179487228393555,79.90424537658691,0.0
385,0.9150975167751312,-0.009062777552753627,50.02136764526367,7.3601953983306885,77.41118221282959,0.0
386,0.9080782473087311,-0.012560899765230657,48.79548225402832,6.998779058456421,76.60634574890136,0.0
387,0.8990752965211868,-0.01659584324806924,50.01037864685058,7.692307710647583,77.48943500518799,0.5440355971455574
388,0.8974349141120911,-0.012757593614514876,50.37912091040052,13.630037069320679,85.42561416625976,0.5788797304034233
389,0.9066286295652389,0.00034564152192614504,49.10927944183349,16.630037307739258,89.21932983398438,0.32509224452078345
390,0.9384441688656807,0.03171631437726315,48.1391942024231,32.10256471633911,92.20162353515624,0.11656622495502231
391,0.9938734039664269,0.0761623089201748,50.42551908493042,16.951160287857057,98.3967658996582,0.03197039905935524
392,1.0346919178962708,0.09435912352055306,49.77960910797119,9.550671863555907,98.96934356689454,0.0
393,1.045335254073143,0.07586761908605688,49.40842533111572,7.07264951467514,98.47582626342772,0.0
394,1.0401852399110794,0.042573858099058205,49.76678867340088,7.362637400627136,99.63419380187989,0.0
395,1.0343485802412034,0.013245202592952365,49.752747249603274,7.460317325592041,98.48468170166015,0.0
396,1.02580341398716,-0.0080201624827168,51.793040084838864,7.452991390228272,95.74135437011718,0.027659783139824857
397,1.0169911801815033,-0.017882346198894027,47.34737491607666,7.496947288513184,95.23809814453124,0.35652382448315617
398,1.0097048938274384,-0.019102537306025576,49.30952377319336,8.462148785591125,95.2042453765869,1.5132056534290315
399,1.0228278458118438,-0.00033710318384693003,50.596459197998044,20.366300582885746,94.78672790527344,0.22002099901437755
400,1.0434278577566147,0.020895785163156634,49.629425811767575,20.366300582885746,94.78672790527344,0.014189109392464145
401,1.0478911399841309,0.021959627186879462,49.335774993896486,20.461538362503056,94.7139009475708,0.0014368718490004526
402,1.043084505200386,0.012203876883722795,49.576312732696536,11.394383025169374,96.51078052520754,0.0
403,1.0340052396059036,-0.00199071609677046,50.09462757110596,7.90842467546463,90.65240325927735,0.01149497479200362
404,1.0274056375026706,-0.011828451277688105,49.011599445343016,7.347374796867371,87.07210350036621,0.007184359245002263
405,1.0203863650560379,-0.016775434836745217,50.10012197494507,7.067155122756958,84.67273635864258,0.0
406,1.0158085852861405,-0.01553089688532049,49.59096450805664,7.5518924474716185,84.0984375,0.0
407,1.0197378396987915,-0.005862520972732415,49.910867023468015,7.612942457199097,85.74231052398682,0.0
408,1.0196996927261353,-0.0022954157437197376,49.78998804092407,7.404761922359467,90.6120735168457,0.0
409,1.0145496994256973,-0.004818172543309582,51.62454233169556,8.38339421749115,99.91335258483886,0.19379808455705638
410,0.9814371183514595,-0.0338114253012463,37.20085465782322,11.257631301879885,112.35955047607422,0.5787001304328442
411,0.914716026186943,-0.08540415484458205,59.223443269729614,11.257631301879885,112.35955047607422,0.6749705418944358
412,0.9620960086584092,-0.020572477381210767,48.73504276275635,11.257631301879885,112.35955047607422,0.23313245028257365
413,1.0278252512216568,0.04936346788890654,50.36691112518311,11.257631301879885,112.35955047607422,0.09411510378122327
414,1.0491882115602493,0.06556605109944934,49.45421257019043,11.257631301879885,112.35955047607422,0.11243521999567745
415,1.03041932284832,0.03918593293055887,50.03357753753662,11.814407730102541,112.35955047607422,0.09178018737584345
416,1.0038300707936287,-0.0024172408004233077,50.153845977783206,12.649572372436523,112.35955047607422,0.010058102943003168
417,0.9827722981572151,-0.03589421398937697,49.75641031265259,12.649572372436523,112.35955047607422,0.04202850181609388
418,0.9673604503273964,-0.04628555709496136,49.07326021194458,12.649572372436523,112.35955047607422,0.0
419,0.9496978715062141,-0.046655205264687485,49.84737462997437,12.649572372436523,112.35955047607422,0.0
420,0.9425641715526579,-0.03474121382459994,50.01465187072754,11.577533328533173,113.24480743408203,0.01724246218800543
421,0.9379482343792915,-0.024248406337574066,49.42735042572021,1.9291819334030151,121.21212005615234,0.0
422,0.9269997239112854,-0.023256006138399194,51.23199014663696,1.9291819334030151,121.21212005615234,0.1241098016500473
423,0.9153263956308365,-0.02410994465462857,48.2789984703064,1.9291819334030151,121.21212005615234,0.2794715693220496
424,0.9036530733108521,-0.026000929996371224,49.59462757110596,1.9291819334030151,121.21212005615234,0.03951397519558665
425,0.9036912173032761,-0.017315775586757766,49.87057380676269,1.9291819334030151,121.21212005615234,0.3883146131411194
426,0.9203619480133056,0.0050984360233996846,52.27167301177978,3.968864622712135,68.59740409851074,0.302102305367589
427,0.8981978759169579,-0.01379407915082991,55.75946273803711,9.917582511901855,59.65464477539062,1.923791754245758
428,0.833689384162426,-0.06728390818461771,39.62820510598831,11.79487133026123,60.4229621887207,1.469919852912426
429,0.7964186429977417,-0.08455273844301699,45.76129448413849,11.79487133026123,60.4229621887207,1.0986681178212165
430,0.8302941963076591,-0.03182531492784614,54.295482349395755,11.79487133026123,60.4229621887207,0.8667929261922837
431,0.8598208576440811,0.010378675367974165,52.93101358413696,14.778998875617981,61.13850526809692,2.221403828263283
432,0.8770638093352318,0.037182893371209454,47.51098899841308,12.698412895202637,61.4124870300293,0.3082090072333813
433,0.8928189933300018,0.04861766044050453,49.71611728668213,12.698412895202637,61.4124870300293,0.06843102164566511
434,0.8928571417927742,0.03172672721557315,48.68742351531982,11.135531425476074,65.27408208847046,0.0
435,0.9012878850102425,0.02270958991721268,50.75946254730225,6.440781474113464,72.33903503417969,0.0014368718490004526
436,0.9196752905845642,0.028634742880240028,50.0378511428833,5.316239237785339,73.8636360168457,0.03197039905935524
437,0.9200567573308944,0.018391914386302194,48.884005069732666,4.859584808349609,75.75757598876953,0.020116205886006336
438,0.9292886093258858,0.020538238761946513,51.4468861579895,4.885225915908814,76.30428009033203,0.03879554029554126
439,0.9511856451630593,0.0327512114308774,48.22100143432617,4.932845115661621,77.31958770751953,0.06645532250404351
440,0.9498886153101921,0.020149598806165108,49.30769214630127,4.932845115661621,77.31958770751953,0.0
441,0.9468367397785185,0.009756610787007907,49.87545785903931,6.4505494117736815,78.67679176330566,0.012931846641004075
442,0.9455778598785398,0.0035398959958910813,49.89682540893555,5.931623816490173,86.50483570098876,0.01149497479200362
443,0.9429456561803816,-0.003554776845703555,48.868131923675534,4.2930402755737305,88.27562255859375,0.0014368718490004526
444,0.9372997149825096,-0.008885369787458275,49.41941423416138,4.612942576408386,88.02562580108642,0.01724246218800543
445,0.9318826854228973,-0.010783068602904622,49.65506725311279,4.664224624633789,87.9120864868164,0.016164808720350258
446,0.9275337964296343,-0.011434426112100425,49.97680082321167,5.231990158557892,82.3597427368164,0.00574748739600181
447,0.9223456501960754,-0.012376632681116401,50.235652923583984,5.4590965747833256,72.82391471862793,0.0
448,0.9163563966751098,-0.013392792479135038,49.93101358413696,4.8846153855323795,67.40059967041016,0.018679334037005883
449,0.9089175060391426,-0.015335430833511013,49.22405366897583,4.173382329940796,67.3287353515625,0.004310615547001358
450,0.9031190022826194,-0.01537083541043098,49.347985076904294,4.40109897851944,67.4312177658081,0.012931846641004075
451,0.9048356637358665,-0.00837681275443169,49.80891342163086,5.468253982067108,67.69343605041504,0.0
452,0.9138386219739912,0.003752744065059195,51.941391944885254,6.558608078956604,68.03728637695312,0.0
453,0.909604175388813,0.000758619036059815,48.33272275924683,6.739926815032959,68.14309692382812,0.01149497479200362
454,0.8975112214684486,-0.00942026511766012,48.62209997177124,6.739926815032959,68.14309692382812,0.0
455,0.892017875611782,-0.01261607338674362,49.57631244659424,6.221001327037811,68.26921691894532,0.0
456,0.8891567602753639,-0.012970569264143663,51.34615364074707,5.199023365974426,70.82853298187256,0.01724246218800543
457,0.8872112289071084,-0.010638371761888232,48.55006093978882,4.981685161590576,72.77137756347656,0.012931846641004075
458,0.8859523296356201,-0.00652708553243424,49.548840045928955,4.523809731006622,74.87810134887695,0.02155307754874227
459,0.8849986180663109,-0.004001248226268163,50.00854682922363,5.371184349060059,77.66522178649902,0.00574748739600181
460,0.8836252734065055,-0.003355164820095467,49.21855936050415,4.682539880275726,78.04244422912598,0.06124666295945639
461,0.8920178815722466,0.005941163272655085,50.072649765014646,4.332112550735474,80.04094905853272,0.0014368718490004526
462,0.9330652803182602,0.04253535689786071,49.414529991149905,5.128205299377441,83.66526508331299,0.007184359245002263
463,0.9656819313764572,0.06192645300179713,49.37179498672485,5.382173538208008,85.69913024902344,0.0
464,0.9671315550804138,0.04691038988530627,49.8217339515686,5.206959676742554,84.33929061889648,0.0
465,0.9652623057365417,0.028603791585192016,49.747252750396726,5.128205299377441,77.50667400360108,0.0071843594312667805
466,0.9558778673410415,0.004218328715887755,49.59462785720825,5.079365158081055,74.63789520263671,0.0
467,0.9463026851415635,-0.01345073286211113,49.80525045394897,5.335775375366211,73.08432006835938,0.0
468,0.9395885914564133,-0.018026961199939195,49.60988998413086,5.680708169937134,70.89512538909912,0.12195449844002722
469,0.9371089845895767,-0.014737474336288811,49.94688653945923,5.5921854972839355,68.82743854522705,0.08890644609928128
470,0.9348200932145119,-0.010811860451940396,49.67216110229492,6.0555554866790775,70.29798336029053,0.01149497479200362
471,0.9400082379579544,-0.0008273696577816676,49.433455562591554,5.128205299377441,72.86936454772949,0.0
472,0.9471419319510458,0.007686699717305555,50.157509326934814,5.022588527202607,75.48049850463867,0.0186793342232704
473,0.9485915690660477,0.007938158628530747,49.56043930053711,5.682539653778076,78.58408279418946,0.0
474,0.9404278710484505,-0.0015835715610592025,49.40537281036377,5.665445804595947,79.4176025390625,0.174041099101305
475,0.9286400943994522,-0.013091240474022863,49.82173376083374,5.6782662749290465,79.75681056976319,0.08567348383367054
476,0.9243675097823143,-0.015004888887051432,49.3516487121582,5.799755811691284,82.78322982788086,0.05927096344530578
477,0.9617908239364624,0.023541762802051343,49.80097665786743,5.846153974533081,85.47568836212159,0.010058102943003168
478,1.0252311795949935,0.07739523882046337,47.46275973320007,5.505494546890259,86.01538276672363,0.21786569021642205
479,1.029045996069908,0.06384373717010015,52.768009662628174,5.44566535949707,87.65522003173828,0.6113889686763286
480,1.0097048789262772,0.027666181186214046,44.802197790145875,5.44566535949707,87.65522003173828,0.3942417025566101
481,1.0171819299459457,0.017773825605399855,53.509157371521,36.74114828109741,88.4535572052002,0.34880063310265536
482,1.0091708078980446,-0.005968926196510443,49.98534806375392,38.14652099609375,87.03330726623535,1.123274539411068
483,0.9750282287597656,-0.039258284587413025,52.64774092519656,38.666666412353514,77.42273406982422,1.794293674826622
484,0.9842600792646408,-0.017748740181559676,47.942002820968625,39.14529800415039,71.81328582763672,2.3200091809034347
485,1.0615100651979446,0.058556108968332354,48.675213527679446,39.14529800415039,71.81328582763672,1.4208866164088247
486,1.0998870760202408,0.08187651000916951,49.25702028274536,40.6654447555542,71.5430419921875,0.20475423522293562
487,1.0969115048646927,0.06226141080260269,49.47313747406006,69.54823303222656,66.40840911865234,0.03215000722557303
488,1.0927915304899216,0.037554060341790235,49.77106227874756,12.07326054573059,69.52706336975098,0.07417850811034438
489,1.0833689510822295,0.004790074676930068,49.58302822113037,4.642857313156128,85.41111335754394,0.01724246218800543
490,1.0717337518930434,-0.017845076462253882,49.82234439849854,4.322344303131104,94.18102703094482,0.027659783512353875
491,1.0599841237068177,-0.025389636773616032,50.01770486831665,3.9951159954071045,95.11580924987791,0.0
492,1.048615989089012,-0.02752638566307719,51.76312589645386,3.7472527623176575,96.36901245117187,0.06142626889050007
493,1.0248115509748459,-0.04029799248091871,47.958486223220824,10.79181911945343,96.02625503540038,1.4040033593773842
494,0.9778893396258355,-0.06931219790130849,51.136141777038574,24.126983642578125,93.1677017211914,0.4423769094049931
495,1.0048600748181342,-0.023633824555145084,50.41941423416138,24.126983642578125,93.1677017211914,0.3417958810925484
496,1.0600604355335235,0.03730166088789696,39.28998780250549,24.126983642578125,93.1677017211914,1.0022180929780007
497,1.0509811758995056,0.0272153213154524,55.967643511900675,29.06715545654297,91.78009719848633,0.3389221373945474
498,0.9903637811541557,-0.03061443780898112,55.3846152305603,29.142858028411865,85.87168045043946,1.041193249821663
499,0.902890108525753,-0.10682984888553615,45.53357744216919,29.035409927368164,85.59201049804688,0.20924445614218706
500,0.8985412135720253,-0.09289707951247689,48.52197780609131,29.035409927368164,85.59201049804688,0.31090314090251925
501,0.9314249083399773,-0.035434563853777884,49.64407825469971,29.035409927368164,85.59201049804688,0.3807710327208042
502,0.94561600536108,0.00244743789626225,49.116605567932126,29.035409927368164,85.59201049804688,0.3144953209906816
503,0.9448530614376066,0.017685332451946985,49.79853467941284,43.69719262123108,85.73752346038819,0.004310615547001358
504,0.9649952739477158,0.03545407690107818,50.4609281539917,19.53418825864792,84.88065948486329,0.034484924189746344
505,0.9939878553152084,0.04683292973786586,50.04700880050659,7.72283273935318,84.38195037841797,0.0
506,0.9981460049748421,0.034563902625814005,49.2533576965332,7.339438378810883,83.7771671295166,0.0
507,0.9926908224821093,0.018359084753319564,49.92735061645508,6.478632569313049,83.50442886352539,0.0
508,0.9881130263209343,0.004687232003197962,49.786935329437256,6.494505476951599,82.40823478698731,0.0
509,0.9849086076021194,-0.005230872277752445,49.19474973678589,6.413308775424957,79.78370666503906,0.11692544445395466
510,0.9862819314002991,-0.004742739879293317,48.89010992050171,7.691086626052856,80.46291236877441,0.25217100307345386
511,0.9885326519608497,-0.0003853981592328574,51.81501817703247,12.676434326171876,84.76796875,0.1679343957453966
512,1.0176778510212898,0.02806897726841266,48.48168506622314,14.017093658447266,85.531005859375,0.46698334366083144
513,1.0908841162919998,0.0886286132037639,48.76678876876831,14.017093658447266,85.531005859375,0.2649232476949691
514,1.147991868853569,0.11798734944313763,49.93833923339844,12.815629005432129,88.95481872558594,0.10686734225600951
515,1.1571855664253234,0.09338846020400524,50.30341882705689,8.879731440544129,94.4138957977295,0.0876491809263825
516,1.1510818839073182,0.053676567971706356,49.79975576400757,8.937728881835938,95.5414047241211,0.18571568094193933
517,1.1393703997135163,0.012705084592562305,49.805250358581546,9.929792165756226,93.52033519744874,0.19343886766582724
518,1.1311303824186325,-0.011696351866703444,49.174603366851805,10.039682269096375,91.52689456939699,0.22756456993520255
519,1.1257896810770034,-0.017961663240566823,49.78144092559815,10.33272280693054,83.60490989685059,0.2959955941885709
520,1.1194189220666886,-0.01764362291432914,50.272893619537356,9.601343059539795,72.06429595947266,0.234210105985403
521,1.114803022146225,-0.014749473938718399,48.76495723724365,9.035408973693848,70.83824920654297,0.10920225698500867
522,1.1086993008852004,-0.014258128590881792,48.06959714889526,7.633089053630829,80.88946685791015,0.10650812517851585
523,1.0909222722053529,-0.025256985099986157,49.18986568450928,6.300366163253784,95.31706428527832,0.31467493288218973
524,1.0705893099308015,-0.03590788207948204,51.704517650604245,5.885225772857666,97.48171997070312,0.04885364212095735
525,1.0548341304063797,-0.0394729239866137,50.162393283844,5.885225772857666,97.48171997070312,0.028737437725067122
526,1.0468611776828767,-0.03412677049636837,49.80647115707397,5.885225772857666,97.48171997070312,0.012931846641004075
527,1.0360270977020263,-0.030751830060034947,49.39194135665893,5.885225772857666,97.48171997070312,0.0
528,1.0238197088241576,-0.02884938009083266,49.37545766830444,5.885225772857666,97.48171997070312,0.0
529,1.0050889611244203,-0.03452223762869829,49.862026882171634,5.885225772857666,97.48171997070312,0.0
530,0.9885708168148994,-0.03797304583713408,50.097069931030276,10.687423968315125,95.42214241027833,0.0
531,0.9652623057365417,-0.04708325341343875,51.99328460693359,6.680708307027817,96.19440307617188,1.4158575713634491
532,0.9028519541025162,-0.08814928382635114,44.923687267303464,4.517704486846924,106.76156616210938,1.0207178220152855
533,0.876339003443718,-0.08526127263903613,51.55433464050293,4.517704486846924,106.76156616210938,0.20421540979295966
534,0.9000289916992188,-0.035711997072212356,50.33272256851196,4.517704486846924,106.76156616210938,0.05747487377375358
535,0.9489349067211151,0.02744580880462304,49.13125743865967,6.979243052005768,110.71174335479736,0.027659783512353875
536,0.9652623102068901,0.04736356921494,49.6471305847168,4.863247895240784,104.99503345489504,0.02442682161927221
537,0.9536271259188652,0.030567280808463642,49.66178274154663,3.316239356994629,90.0352077484131,0.025504475645720937
538,0.941190829873085,0.005394800636031486,49.54151391983032,2.769230842590332,81.32371673583984,0.014727936498820768
539,0.9311960190534592,-0.014682981604710172,49.6691089630127,3.194139242172241,76.26558284759521,0.0
540,0.9200186192989349,-0.025948664359748307,49.60561628341675,3.5757021009922028,73.2230863571167,0.0
541,0.9106723248958588,-0.02608973104506725,49.55982894897461,3.4993895292282104,72.56840858459472,0.043285764940082995
542,0.9033478900790215,-0.022747363988310055,49.680097579956055,3.484737515449524,74.09378166198731,0.012752237729728211
543,0.8962141767144203,-0.02047948348335918,49.8760684967041,3.5653235912323,74.67330169677734,0.0
544,0.8886989921331405,-0.01919706799089905,49.94749717712402,3.5653235912323,75.01553497314453,0.0
545,0.882137517631054,-0.017782736988738147,49.57997579574585,4.042735141515732,76.76073341369629,0.00574748739600181
546,0.874088254570961,-0.01839788183569904,49.43528728485107,4.688644886016846,77.061767578125,0.0
547,0.8667638257145882,-0.018457673722878053,49.83638591766358,4.6367523074150085,76.9151346206665,0.0
548,0.8599734470248223,-0.01795180821791286,49.56227102279663,4.737484693527222,78.01670913696289,0.0
549,0.8536027178168297,-0.017181060835719072,49.59523811340332,5.05494499206543,77.28142414093017,0.0
550,0.8499404788017273,-0.014033157005906054,49.34371204376221,5.29304039478302,75.50844345092773,0.0
551,0.8457442030310631,-0.012235816684551483,49.846154022216794,5.40170955657959,75.61855907440186,0.0
552,0.842387142777443,-0.010373281221836755,49.42063493728638,5.449328601360321,76.16044178009034,0.0
553,0.8392064036994145,-0.009491655750778169,49.67032978452485,5.266304591606403,77.61812170620622,0.0
