sec,SCL,SCR,TEMP,BVP,PVA,HR,MOTION
0,0.36923581287264867,0.0010000000474974,23.512000274658206,50.707570362091076,0.0,30.0,0.025324866548180586
1,0.36774805188179,0.011957413703203162,23.530750703811638,51.288767147064206,0.0,30.0,0.07938716877251857
2,0.3679387904703616,0.022901105694472783,23.5400009155273,48.51831512451173,0.0,30.0,0.00287374369800091
3,0.36774805188179,-0.00012071671808368748,23.54949932098384,49.8797311782837,0.0,30.0,0.0
4,0.36873989477753655,0.0004620452978997349,23.5499992370605,51.33943824768066,0.0,30.0,0.025504475645720975
5,0.37240210920572303,0.003854142845375425,23.5499992370605,54.22466392517091,0.0,30.0,0.032688835076987756
6,0.3751869164407255,0.0055216070730238626,23.552499294280974,49.69841279983522,0.0,30.0,0.04328576475381853
7,0.37705618739128133,0.005719677312299555,23.5599994659424,43.849206161499026,0.0,30.0,0.018679334037005915
8,0.37896360009908653,0.00559494629269461,23.5599994659424,52.63308906555176,0.0,30.0,0.025863693654537223
9,0.38201544657349606,0.00613199901999901,23.5599994659424,53.880952548980716,0.0,30.0,0.0
10,0.3833887726068497,0.0050708215450867445,23.568249654769886,51.05555534362794,0.0,30.0,0.020116206258535402
11,0.38480026051402105,0.0044577951659447975,23.572749757766722,43.539072132110604,0.0,30.0,0.004310615547001365
12,0.386059135198593,0.003843290178338017,23.583249998092686,44.51953601837158,0.0,30.0,0.021553078107535855
13,0.3861735805869101,0.00235192966065365,23.594000244140624,49.04090375900269,2.168498229980472,52.937860107421876,0.0
14,0.38674580752849574,0.0017072681861463501,23.6000003814697,54.17094011306763,6.76495761871338,59.17953529357909,0.0
15,0.3860972836613653,0.00036919237700198503,23.6052505016327,55.79853458404541,8.30280876159668,59.7014923095703,0.0287374369800091
16,0.387585073709488,0.0013063944526947625,23.6100006103516,48.06776552200317,7.960317742824555,59.975539779663066,0.0
17,0.3876613691449166,0.00097106588800666,23.619750833511354,44.180708312988294,7.05738687515259,60.698028564453104,0.026222911663353464
18,0.3878902554512024,0.0008502716140355524,23.62125062942505,68.64896230697632,8.588522708415987,58.494496440887474,0.007184359245002275
19,0.3870891436934471,-0.00014647961361336246,23.6299991607666,57.870574188232425,15.09584879875182,58.02708053588869,0.0
20,0.38754692524671563,0.0001332827268924705,23.638749361038172,65.32112340927122,27.9365081787109,58.02708053588869,0.04310615528374913
21,0.3872417375445366,-0.0002988798982187197,23.649499607086206,42.14713070392609,27.9365081787109,58.02708053588869,0.020116206258535402
22,0.3870128467679024,-0.00040497375412088123,23.65399971008302,30.255799871729693,27.9365081787109,58.02708053588869,0.0
23,0.387585073709488,0.0002660720208950025,23.66149988174437,58.384615898132324,27.9365081787109,52.54303712844849,0.00574748739600182
24,0.387585073709488,0.00026698028232196495,23.6700000762939,46.35531148910523,27.9365081787109,47.5812835693359,0.0
25,0.3876232214272023,0.0002197514262661375,23.67300014495847,52.811355400085446,44.631868934631356,44.732724761962906,0.02765978351235392
26,0.387585073709488,0.00015871553605387498,23.68050031661989,41.904151201248176,13.79975585937496,55.20586757659912,0.0
27,0.3885769143700598,0.000964362639933795,23.6900005340576,38.8803418159485,11.8437118530273,55.8139533996582,0.0
28,0.3889965392649171,0.00104902078237497,23.6900005340576,49.726495647430426,12.085470080375686,57.384217739105225,0.018679334037005915
29,0.387585073709488,-0.00048614994739180006,23.695250654220597,51.1990234375,12.1367521286011,68.3760681152344,0.01975698806345464
30,0.3876613691449166,-0.00042202523909503,23.70599975585942,50.69352893829346,12.305250287055978,73.37582015991212,0.021553077735006827
31,0.3876232214272023,-0.00045653989218400495,23.7099990844727,47.62881565093994,10.128205394744871,80.47289390563962,0.01149497479200364
32,0.38892024382948853,0.00076455187809183,23.7099990844727,42.756410503387464,8.88888931274414,82.3045272827148,0.00862123109400273
33,0.387585073709488,-0.0004094927098776225,23.711749124527014,51.617826747894284,9.57264995574952,82.3045272827148,0.0
34,0.387585073709488,-0.0002899655373767,23.7199993133545,60.63980464935304,10.2564105987549,82.3045272827148,0.0
35,0.387585073709488,-0.0002767049205430475,23.723249387741085,54.66300315856934,10.2564105987549,82.63703994750972,0.0
36,0.387585073709488,-0.00027416178854757,23.7299995422363,51.249695110321056,10.2564105987549,88.9547805786133,0.0
37,0.3876232214272023,-8.30628698508648e-05,23.7347496509552,38.981684827804564,15.56776628494266,77.45341682434082,0.0287374369800091
38,0.3877758122980595,0.0001496366445280695,23.7399997711182,58.19352865219116,17.5824184417725,66.60099296569824,0.05460113063454632
39,0.38792840316891675,0.0002824274216436509,23.7399997711182,54.6141637802124,30.164835453033454,60.563262939453146,0.033407270908355734
40,0.3898739516735075,0.001981292167329185,23.740249776840244,51.67765560150146,34.3589744567871,59.5533485412598,0.08836761787533756
41,0.39002654552459703,0.0016083660615549423,23.75,53.33455457687379,24.216116523742674,58.859625434875475,0.037179059349000475
42,0.38911098241806,0.00030715522334499,23.75,48.32967033386231,23.9560432434082,60.636684417724595,0.025863693282008188
43,0.3896450608968733,0.0005522249675550207,23.752500057220452,36.19536027908326,23.9560432434082,60.636684417724595,0.015805590339005006
44,0.39075136631727214,0.0011264709464739527,23.7600002288818,44.97557983398438,23.9560432434082,60.636684417724595,0.0
45,0.39094210863113404,0.0008941451611462325,23.7600002288818,50.40170946121216,20.460316991806007,56.80932302474979,0.027300565689802193
46,0.39216285943985,0.0018553149100625475,23.7600002288818,52.411477565765395,21.66971950531006,64.7840533256531,0.010058102943003185
47,0.3931547001004218,0.0021995652961776975,23.7600002288818,45.300976562500004,20.5616607666016,65.05760717391965,0.012931846641004094
48,0.3920865625143053,0.0004558629982056575,23.768500423431416,44.224664497375485,17.133089351654043,78.25924644470214,0.0
49,0.3918958202004434,-3.6422047742264994e-05,23.77600059509278,46.125152587890625,17.338827514648475,83.76797218322756,0.0
50,0.39216285943985,-1.7160458241951369e-06,23.770250463485745,62.34615411758423,17.7533569335938,86.5176620483398,0.01724246218800546
51,0.3934980295598505,0.001077687707220285,23.7700004577637,54.06166048049927,17.7533569335938,86.5176620483398,0.012931846641004094
52,0.3922773025929929,-0.0001951734564499525,23.7700004577637,50.970695877075194,17.7533569335938,86.5176620483398,0.0
53,0.39216285943985,-0.0002249666598799725,23.772500514984152,47.573260116577146,13.949938774108887,87.28958225250241,0.005388269573450092
54,0.3910947024822235,-0.0012725969136226476,23.7800006866455,42.92246627807617,13.406593322753901,87.3998565673828,0.03484414294362071
55,0.390636920928955,-0.00144554773869455,23.78100070953368,57.90232000350952,21.148962211608914,87.3998565673828,0.00574748739600182
56,0.3909802570939064,-0.0006864095717901225,23.7900009155273,57.39255266189575,22.5152626037598,87.3998565673828,0.013291064836084854
57,0.39216285943985,0.0007635848742211026,23.79225053787227,50.45909671783447,23.45299148559572,89.6492156982422,0.007184359245002275
58,0.3917050778865815,0.00035593937354858,23.79699974060054,44.44505500793458,24.8595848083496,93.0232543945313,0.008262013085186485
59,0.3917432263493539,0.00039608598599440495,23.7999992370605,42.15323543548585,24.8595848083496,93.0232543945313,0.02173268646001816
60,0.3919339686632158,0.00034759229456536,23.80124926567074,52.19719171524049,23.68742370605468,86.28029937744142,0.0
61,0.390636920928955,-0.001046457714983245,23.8099994659424,56.13247890472413,24.586080551147468,79.83450412750244,0.0
62,0.390636920928955,-0.0008406457447562851,23.815749597549434,49.10256414413453,24.507325696945195,73.65525245666502,0.0
63,0.390636920928955,-0.0005874225018487325,23.81649961471557,40.49145298004151,19.9023189544678,81.5771560668945,0.00574748739600182
64,0.39071321785449975,-0.00029641262080983,23.8099994659424,41.38888893127442,19.970695114135758,85.22747344970702,0.0
65,0.39090396016836165,0.00011449221801742601,23.814499568939212,53.71978006362915,25.383394432067867,96.78835945129396,0.0
66,0.390636920928955,-6.46273329039104e-05,23.8199996948242,57.83272285461427,30.299144554138223,101.31681900024401,0.010058102943003185
67,0.390636920928955,-6.46273329039104e-05,23.8199996948242,49.27594623565674,25.399877119064364,103.8114046096805,0.0
68,0.39082766324281687,0.00011666906666505496,23.82024970054625,43.04273490905762,25.59035363197328,105.66919822692853,0.0
69,0.3904843270778655,-0.0002537332813517046,23.8299999237061,46.86996326446533,26.00732536315919,104.26563396453855,0.005388269573450092
70,0.38911098241806,-0.001406188809778495,23.8299999237061,60.822344398498544,22.598290443420396,101.95806999206518,0.02604330256581308
71,0.38991210013627986,-0.0003142458263028025,23.8299999237061,56.30280838012696,22.017704343795774,101.9764089584347,0.0
72,0.390636920928955,0.0004439989861566,23.8299999237061,45.82722826004029,22.8083019256592,105.44815826416,0.0
73,0.3901791393756865,5.07039774674575e-05,23.83350000381473,45.44505472183228,21.070207023620604,107.38105678558368,0.004310615547001365
74,0.3897595062851904,-0.00017674103728494,23.8400001525879,47.235042858123784,21.0256404876709,107.430618286133,0.02406760379672052
75,0.3920484140515329,0.00184041495376728,23.84150018692017,61.54334554672242,23.46703357696537,109.49299030303936,0.04077123869210483
76,0.391247296333313,0.000533577376518245,23.8500003814697,52.35531120300293,24.48351707458498,84.21582412719718,0.0
77,0.3895687639713285,-0.0011175254946464944,23.859250593185457,42.80952377319336,24.474970197677628,67.09113836288454,0.02155307829380037
78,0.3905224755406379,-6.190701615195989e-05,23.86650075912477,38.16666660308839,24.3711853027344,62.6304817199707,0.0
79,0.391247296333313,0.00046854586836389187,23.8700008392334,41.40293006896974,24.13858456611636,62.31488971710205,0.0
80,0.39105655401945116,0.0002525538839108975,23.8700008392334,56.388278579711915,21.2698421478272,58.42258834838869,0.0
81,0.3923917457461358,0.00159065205079965,23.87874937057495,56.04822998046875,21.2698421478272,58.42258834838869,0.05136816874146464
82,0.3922772966325283,0.00103714943979864,23.886249303817724,52.084249210357676,21.2698421478272,61.408632278442404,0.07004750389605766
83,0.3917432263493539,0.00010253596265099251,23.8899993896484,46.75396862030029,16.69413957595828,74.07224311828614,0.007184359245002275
84,0.392925813794136,0.000964507178286992,23.89749956130982,41.873015689849865,11.4774112701416,82.3045272827148,0.01149497479200364
85,0.39376507103443137,0.0014517223526126686,23.8999996185303,54.681318187713636,11.4774112701416,82.3045272827148,0.0
86,0.3972746960818765,0.004209488723427022,23.90899982452392,60.48534746170044,11.4774112701416,82.3045272827148,0.024786039814353008
87,0.3987243264913559,0.00452669903170313,23.913249921798684,54.945055007934585,11.52503035068512,82.3045272827148,0.025863693282008188
88,0.4021958157420157,0.0062697671120985924,23.92400016784666,49.2704517364502,12.1123323440552,82.3045272827148,0.0
89,0.4041795097291474,0.006042208243161398,23.937750482559196,39.943833827972426,12.1123323440552,82.3045272827148,0.0
90,0.402844339609146,0.0025998720084316673,23.948500728607215,50.73748464584351,11.951160049438501,82.87697906494138,0.0
91,0.402539151906967,0.0008992317205411199,23.95899925231938,58.83699626922608,11.3064708709717,85.1667861938477,0.024426821433007735
92,0.4020050734281537,-0.0005116821794217651,23.96349916458133,47.65811939239502,11.3064708709717,85.1667861938477,0.00574748739600182
93,0.4008606195449828,-0.0018290690000867175,23.9699993133545,40.122710704803474,14.7741146087646,85.1667861938477,0.0
94,0.39960172399878535,-0.00242111914267296,23.977999496459937,38.90598292350769,14.7741146087646,85.1667861938477,0.0
95,0.39830470159649833,-0.002786810437100905,23.985249662399298,53.531135749816904,14.7741146087646,85.1667861938477,0.0
96,0.399792462587357,-0.0005704422772395875,23.99299983978274,55.40231971740724,14.7741146087646,85.1667861938477,0.0
97,0.399792462587357,-4.41957091766101e-05,24.00050001144409,47.007936668396006,10.817460489273095,88.69052944183355,0.0
98,0.39826655164360986,-0.00111797419558567,24.011250257492037,49.53357734680177,11.26007347106935,101.44972515106221,0.0
99,0.396740615367889,-0.0020924142474541,24.022000503540063,45.716727638244635,11.5506715774536,104.986877441406,0.0
100,0.396740615367889,-0.0016751590213970775,24.0300006866455,52.149573040008555,12.781440734863299,104.60377788543697,0.018679334037005915
101,0.3963209904730317,-0.0016074109269538373,24.0300006866455,58.771061992645265,13.8949937820435,104.257164001465,0.028737437166273617
102,0.39559618383646,-0.00156818818795723,24.033750772476175,50.19169712066651,15.200854325294483,101.28213062286395,0.02298994958400728
103,0.395214706659317,-0.00117564513202519,24.04450016021724,46.752136707305915,15.42735028266905,79.30043792724618,0.01149497479200364
104,0.3959013678133486,-8.535267261319999e-05,24.05199928283688,45.36935291290284,17.0207576751709,57.0342216491699,0.010058102943003185
105,0.39807581156492217,0.0019768299767747074,24.0599994659424,54.09035396575928,20.42735013961789,56.18974123001095,0.02298994958400728
106,0.3953672915697096,-0.00077728472679152,24.0599994659424,61.064102268219,21.4163608551025,67.4157333374023,0.01796089839190246
107,0.3941846981644629,-0.001632904098369145,24.066999626159664,49.65628814697266,21.4163608551025,67.4157333374023,0.018320116400718702
108,0.39483322203159327,-0.0009010018547996751,24.071499729156486,45.34004869461061,23.74420046806337,75.47982616424562,0.004310615547001365
109,0.3933835864067076,-0.0020594488945789276,24.0799999237061,45.43284492492676,24.4200248718262,81.56303730010987,0.012931846641004094
110,0.39407025277614577,-0.000637635875318665,24.0799999237061,46.55738706588746,25.829059219360346,89.03309898376469,0.006106705404818062
111,0.3954435922205447,0.001124802694539505,24.0799999237061,50.728937816619876,25.762515211105363,91.81328144073488,0.012572629004716885
112,0.39281136691570273,-0.001512145571177805,24.087250089645405,46.43406620025635,28.0219774246216,95.24673461914065,0.0
113,0.391247296333313,-0.0024556920659960777,24.0900001525879,47.8534797668457,31.31379737854001,97.80395889282227,0.0
114,0.3919339686632158,-0.00129345414316044,24.081249952316327,46.39255170822143,30.377900028228787,98.84112491607665,0.0
115,0.3929639615118503,-5.696744483434991e-06,24.073749780654914,46.92246646881104,28.496947431564344,98.56636810302736,0.0
116,0.3928876660764217,0.00024389194950344997,24.0699996948242,56.99572677612306,28.82967033386227,98.5437849044798,0.03161118067801001
117,0.39143803864717486,-0.0007655920661818253,24.07724986076358,55.78266124725343,29.68742327690124,101.89551906585703,0.0
118,0.39090396016836165,-0.0011381817166693374,24.0799999237061,47.14529900550842,29.522588920593222,103.31152992248519,0.0
119,0.3915906324982644,-0.0003990118710135075,24.0799999237061,43.18803405761719,30.19780235290524,101.17346992492665,0.0
120,0.39216285943985,0.000247510840563295,24.0799999237061,47.73321104049683,28.595848274230946,96.92281799316409,0.018679334037005915
121,0.3920102655887605,0.000325252058973955,24.0799999237061,53.89255218505859,25.553113174438522,91.76581954956059,0.0
122,0.3906750693917274,-0.000842097468557725,24.0799999237061,58.99145317077638,24.468864440918,90.8402709960938,0.0
123,0.390636920928955,-0.00082211721310154,24.085250043869046,51.13797311782837,24.468864440918,90.8402709960938,0.04741677045822143
124,0.3903698816895484,-0.0009400199429364399,24.0900001525879,45.18009767532349,19.5115985870361,92.0245361328125,0.00197569876909256
125,0.3895687639713285,-0.001359486296860225,24.099750375747657,43.799145507812504,18.61843662261961,92.31011276245121,0.0
126,0.3888439483940599,-0.00148139805241949,24.10425047874451,48.90109872817994,19.27228355407714,90.56101303100584,0.0
127,0.3880809940397739,-0.001704663563577875,24.111500644683872,58.99999980926515,20.312575817108154,90.40601367950438,0.0
128,0.387585073709488,-0.0016004048637114048,24.1200008392334,49.68986549377441,20.0488395690918,90.4977340698242,0.0
129,0.38705099523067477,-0.0015308529109460674,24.128999328613283,44.91819295883179,19.961538219451914,91.1090654373169,0.012931846641004094
130,0.386059135198593,-0.00177721210056911,24.136749315261817,44.15384616851808,16.43284506797792,92.7826316833496,0.0
131,0.386059135198593,-0.00116250089340606,24.147249555587777,44.8632477760315,15.551282620429978,93.97276916503907,0.0
132,0.38754692524671563,0.0006760596588719426,24.15949983596801,58.15628852844238,16.8009777069092,93.50719127655034,0.0
133,0.3862880259752272,-0.0004451472079380975,24.172250127792328,55.07997589111328,16.8009777069092,93.4579467773438,0.025863693468272702
134,0.38674580752849574,0.00025205200145139,24.1800003051758,49.598901271820075,17.45543403625488,93.39617404937748,0.00574748739600182
135,0.3868602529168129,0.00020137549145146,24.189750528335555,47.50366306304932,18.522588443756074,93.2980987548828,0.0
136,0.3846476696431639,-0.00191293391253562,24.1900005340576,44.539072322845456,18.72893767356876,93.5754405975342,0.0
137,0.38521988540887836,-0.0009180133527592942,24.19800071716312,55.724664306640626,21.548839473724364,93.70653476715088,0.09914415664970878
138,0.38689840137958526,0.000937250255265055,24.20549983978276,57.625152492523206,23.1990222930908,93.9702453613281,0.05873213596642015
139,0.38892024382948853,0.00260723229730498,24.2099990844727,50.606226825714124,23.07936420440672,94.10265083312986,0.04472263604402543
140,0.387585073709488,0.0010429986839880924,24.2199993133545,50.10256395339967,20.8058605194092,96.6183547973633,0.024426821619272242
141,0.387585073709488,0.00063155634052232,24.227749490737896,35.33028087615967,20.8058605194092,96.6183547973633,0.027300565689802193
142,0.38754692524671563,1.7025285467280586e-05,24.2299995422363,51.77655692100526,20.8058605194092,96.6183547973633,0.07076593860983847
143,0.38533432856202127,-0.0022954801563173097,24.23274960517882,45.50000009536744,20.8058605194092,96.6183547973633,0.023349167592823523
144,0.384533226490021,-0.0024168395029846176,24.2399997711182,60.306471252441405,22.06227045059204,98.35000324249266,0.007184359245002275
145,0.3848384082317354,-0.0013881368235160664,24.247249937057504,41.55616593360902,23.1990222930908,99.9167327880859,0.03161118123680355
146,0.38422803878784195,-0.00139778228476639,24.254750108718856,41.15018310546876,23.990231466293316,99.9167327880859,0.0
147,0.384533226490021,-0.00045190709170123247,24.26225028038023,44.670940017700204,26.7155075073242,99.9167327880859,0.0
148,0.384533226490021,-4.4461091181336e-05,24.2700004577637,54.92612953186036,18.429792404174812,109.53681640624993,0.01149497479200364
149,0.3839991480112077,-0.0005095117113682909,24.276750612258915,60.877899742126466,13.308913230896,123.96694183349601,0.01149497479200364
150,0.3834650695323945,-0.0007925467769382451,24.281250715255727,53.07203874588013,13.308913230896,123.96694183349601,0.0
151,0.383312475681305,-0.0007691195976803875,24.2900009155273,42.64652051925659,13.308913230896,123.96694183349601,0.03304805289953949
152,0.38216803818941136,-0.001591124346305105,24.29599990844722,46.70268602371217,13.54578742980957,123.96694183349601,0.00718435943126679
153,0.38258766308426867,-0.0007329909261897651,24.30024924278255,59.21367511749268,15.6776552200317,123.96694183349601,0.0
154,0.3827402539551259,-0.00018839449326153363,24.3099994659424,58.13492078781128,15.6776552200317,123.96694183349601,0.012931846641004094
155,0.3830835849046707,0.0002303221404871925,24.3099994659424,45.39621477127075,14.032356381416275,123.96694183349601,0.039513976499438316
156,0.3823969244956972,-0.00027432271235740247,24.315249586105345,44.57936506271362,13.7973136901855,123.96694183349601,0.00574748739600182
157,0.38224433362483995,-0.000359702271816795,24.32299976348877,46.333943462371835,15.18925514221193,132.1287902832029,0.012931846641004094
158,0.381481379270554,-0.00098151280399174,24.33375000953678,57.08852252960205,16.2442003250122,110.5613746643066,0.01149497479200364
159,0.3823969244956972,3.194298187735499e-05,24.344000244140624,50.39682540893555,16.2881565093994,107.62332153320298,0.0
160,0.3825495153665544,0.0002521084810723375,24.351750421524034,44.060439491271964,20.5372409820557,103.359176635742,0.0
161,0.381176191568375,-0.0009286639295168726,24.3600006103516,44.708180618286136,16.968864917755102,101.60232734680162,0.0
162,0.38109988868236566,-0.0006832606719399025,24.362750673294094,44.07814388275146,16.4590969085693,101.351348876953,0.0
163,0.3825495153665544,0.0006582829257240475,24.3700008392334,51.94505510330201,18.01770501136777,101.94804210662826,0.0
164,0.3803750738501551,-0.0014086204617341925,24.37724962234497,50.51770420074463,18.52014708518982,87.16575241088859,0.00574748739600182
165,0.3820154406130315,0.000629564718838059,24.37799949645996,46.246031856536874,17.8021984100342,70.339973449707,0.00574748739600182
166,0.3816339701414112,0.000161082831198194,24.3700008392334,50.27228317260743,17.13797283172605,61.2886600494385,0.020116206072270885
167,0.381481379270554,-0.00012266096628078788,24.3700008392334,50.85409021377565,20.14896173477171,56.67530937194823,0.00574748739600182
168,0.37987915202975275,-0.0014774778460377599,24.37375020980835,50.78144111633301,19.435897445678727,62.50322427749634,0.028737436793744575
169,0.378429532051086,-0.0024191981297917173,24.3799991607666,57.07326002120972,24.74847412109372,83.01078720092774,0.03861593157052996
170,0.3793450772762298,-0.0011007482102285851,24.385249280929546,55.13797311782838,25.0061054229736,83.6820068359375,0.02676173821091653
171,0.37926878184080115,-0.0006662375163727711,24.3899993896484,51.050671195983895,23.583028459548927,85.22886600494384,0.030353917740285414
172,0.3769417420029643,-0.002276477578561715,24.3899993896484,46.65750904083252,16.8742370605469,92.5212020874023,0.0
173,0.37762841433286665,-0.0008223244838518393,24.3899993896484,45.39499368667603,16.800976991653478,93.54003810882568,0.05316425859928133
174,0.3783532351255413,2.6383142176149998e-05,24.3899993896484,57.07203884124756,18.76068420410154,96.3768098831177,0.003592179715633395
175,0.3772469297051432,-0.000869568964844775,24.398499584198014,50.54029293060303,19.3650798797607,96.6183547973633,0.0
176,0.376903593540192,-0.00069846596015845,24.3999996185303,43.6166054725647,19.3650798797607,96.6183547973633,0.0
177,0.3768654450774196,-0.0005413382750702625,24.3999996185303,42.15995121002199,19.3650798797607,96.6183547973633,0.0
178,0.37423321902751955,-0.0029118034130078377,24.3999996185303,48.84676456451417,22.644689369201696,97.21781387329104,0.00718435943126679
179,0.373851746320725,-0.002396640623919605,24.408249807357784,52.89072055816651,20.16056208610536,76.64931354522707,0.04346537366509441
180,0.37503432556986827,-0.0005590233420654722,24.4099998474121,47.44383430480957,17.98290634155271,63.08256988525392,0.0
181,0.3750724732875826,-0.00012741685181937723,24.41649999618527,44.60744848251343,17.033577680587776,58.32962112426757,0.023349168151617066
182,0.37350840866565743,-0.00118775978698973,24.4200000762939,44.63797321319581,17.4603176116943,64.44633769989011,0.00574748739600182
183,0.37198247835040105,-0.0020933476538629848,24.4200000762939,51.956654739379886,21.094016838073692,89.85844650268558,0.02298994958400728
184,0.3708380468189713,-0.00274404838564801,24.4200000762939,58.429182052612305,21.3431015014648,96.5406265258789,0.04436341896653178
185,0.370799899101257,-0.0020528623164863674,24.426250219345086,57.27777786254884,21.3431015014648,96.5406265258789,0.03484414275735619
186,0.3701895236968994,-0.00175134340970539,24.4200000762939,49.297313594818135,21.3431015014648,96.5406265258789,0.0
187,0.369273960590363,-0.0017054211464709976,24.427250242233278,43.68803405761719,18.0317461013794,98.65069293975827,0.0
188,0.3704184122383594,4.6293974446575e-05,24.4300003051758,49.92735033035279,15.461538386344944,91.06265678405758,0.015805590339005006
189,0.37205877378582974,0.0016188992267415873,24.43850049972533,60.14835138320924,14.2124538421631,67.7200927734375,0.0
190,0.36976989060640353,-0.000694143695727685,24.4400005340576,56.3296703338623,14.2124538421631,67.7200927734375,0.007184359245002275
191,0.3683965630829335,-0.0017495797816081376,24.4400005340576,46.481074619293224,14.2124538421631,67.7200927734375,0.03161118067801001
192,0.36908322200179133,-0.0008614685459178374,24.441500568389884,38.6361418247223,14.2124538421631,67.7200927734375,0.0
193,0.37022767215967173,0.0002597301499917925,24.4500007629395,43.720390796661384,14.474358820915237,64.66149940490723,0.0
194,0.370799899101257,0.001054481095343325,24.45899925231938,59.49511613845825,15.0183153152466,58.3090362548828,0.0
195,0.37072360217571226,0.0009919897376675824,24.4599990844727,50.69902305603028,16.47985394001009,53.80537042617798,0.02047542408108713
196,0.3680532336235046,-0.0017595773970242202,24.4599990844727,43.15079374313355,17.8021984100342,49.7306251525879,0.01149497479200364
197,0.36774805188179,-0.0019108996464637551,24.463249158859284,34.023809385299685,17.8021984100342,49.7306251525879,0.020116206072270885
198,0.36774805188179,-0.00150145548104769,24.468249273300184,47.85897445678712,17.8021984100342,50.44397392272949,0.05100895091891292
199,0.36774805188179,-0.0009412399376742099,24.4699993133545,58.272283267974856,20.178266811370868,52.14375305175783,0.028198610246181498
200,0.3682058244943619,0.00011217040737394998,24.4699993133545,59.458485889434826,24.5909652709961,52.84016036987309,0.028019001148641132
201,0.3716010026633739,0.0034065315674524353,24.477249479293803,47.27838850021362,24.5909652709961,52.84016036987309,0.03448492437601092
202,0.3724021047353747,0.0033031870960257524,24.4799995422363,40.980464267730724,24.5909652709961,52.84016036987309,0.012931846641004094
203,0.37232580780983,0.0023013719590380425,24.4799995422363,51.844322299957284,18.36019566059111,52.84016036987309,0.0
204,0.3727835893630985,0.0018065691067021875,24.4799995422363,60.86630029678346,12.7228326797485,52.84016036987309,0.02801900133490564
205,0.372096921503544,0.00017167648784375248,24.480749559402444,58.50610542297363,12.7228326797485,52.84016036987309,0.0
206,0.3712195239961146,-0.0009961829789972526,24.4899997711182,51.105006027221684,12.7228326797485,52.84016036987309,0.0
207,0.37255469858646423,0.00040692955953998747,24.4899997711182,42.03968229293824,10.147740817070005,53.3622124671936,0.0
208,0.3740806326270108,0.0017275965714361127,24.492749834060696,40.8333330154419,9.93894958496094,53.404541015625,0.0499312967061997
209,0.3738517388701442,0.00113521665771257,24.5,57.764346408844006,9.93894958496094,53.404541015625,0.069149456359446
210,0.373851746320725,0.0009196028855512374,24.5,55.91636142730713,9.93894958496094,53.404541015625,0.0
211,0.3743095189332966,0.0008122553472275651,24.504750108718856,46.084859752655035,9.93894958496094,53.404541015625,0.0
212,0.3741187803447251,0.00022097354208270328,24.5100002288818,33.81562881469726,9.93894958496094,53.404541015625,0.0
213,0.375377655029297,0.0011824834917205825,24.5100002288818,47.71245422363281,14.907814645767212,44.60453443527224,0.0
214,0.3738898940384393,-0.0003755769248527625,24.5100002288818,50.44200248718262,24.5665454864502,41.34057512283322,0.018679334037005915
215,0.37270729243755374,-0.001504409451445055,24.511000251769993,54.039072132110604,17.852258777618452,43.7158470153809,0.018679334037005915
216,0.37232580780983,-0.0015271308890077826,24.5200004577637,50.43223457336427,17.6800975799561,45.12349033355712,0.0
217,0.3723639562726023,-0.001156740452279295,24.5200004577637,47.56471309661866,15.11050052642825,46.16261377334594,0.0
218,0.3741569280624394,0.0009662934535299026,24.5200004577637,48.269230651855466,13.710012173652638,51.82763833999633,0.0
219,0.37232582047581686,-0.00067426090099615,24.5200004577637,50.900488281250006,15.272283315658594,70.4812093734741,0.0
220,0.37068544477224363,-0.0018069185629428503,24.5200004577637,59.2301589012146,15.9218559265137,74.9531555175781,0.0
221,0.3740424819290642,0.001529591879079779,24.5200004577637,57.98046426773071,15.9218559265137,74.9531555175781,0.00574748739600182
222,0.37244026064872754,-0.0003698124826768975,24.5200004577637,49.95360212326051,15.9218559265137,74.9531555175781,0.01724246218800546
223,0.3714865580201149,-0.0009500380790995885,24.52600059509278,44.24175853729248,15.9218559265137,74.9531555175781,0.01149497479200364
224,0.3706854537129399,-0.001278846518834995,24.523250532150286,45.74908418655396,15.83638582229617,75.25955162048338,0.0
225,0.36755730733275394,-0.0040627618902362396,24.5200004577637,53.76739912033081,14.2124538421631,81.0810775756836,0.03628101423382761
226,0.36812952905893326,-0.00251161619817135,24.5200004577637,54.7564103126526,14.2124538421631,81.0810775756836,0.0
227,0.3677480459213256,-0.0017935582596691826,24.5200004577637,47.455433273315435,14.2124538421631,81.0810775756836,0.0
228,0.3676336035132407,-0.00108239118417255,24.52650060653687,40.96153841018678,14.2124538421631,81.0810775756836,0.0
229,0.36748101264238336,-0.0005436135923445825,24.5300006866455,42.29059839248657,14.349205970764174,80.88331890106201,0.0
230,0.3654209956526756,-0.0020953675819327553,24.5300006866455,48.00427379608154,19.15506706237794,71.80941467285155,0.0
231,0.3635517433285712,-0.0032963212928734296,24.5300006866455,50.54822959899902,17.255188655853285,81.12403678894043,0.12860002629458894
232,0.363170266151428,-0.0026783477747812524,24.53250074386595,49.783272171020506,23.50427331924443,90.5213893890381,0.09932376556098461
233,0.3640476636588575,-0.0010287465514010905,24.5400009155273,48.885226058959965,22.639805412292464,96.66353416442871,0.024426821433007735
234,0.3643909931182864,-3.455707073955737e-05,24.5400009155273,51.00732593536377,20.007937145233107,101.48293266296412,0.018679334037005915
235,0.36221655458211865,-0.001585565079585605,24.5400009155273,48.299145317077645,19.3650798797607,104.803489685059,0.0
236,0.36202581226825675,-0.0012956555397976926,24.5400009155273,49.565323734283446,19.3650798797607,104.4691562652589,0.0
237,0.3623309999704357,-0.0007392427734885075,24.5400009155273,56.29914541244508,19.01343126296997,100.4037137985227,0.02442682161927225
238,0.3630939692258833,0.0001403472262608775,24.5400009155273,57.93223466873169,19.4139194488525,98.1996688842773,0.03161118067801001
239,0.3611484073102471,-0.0013287408379255325,24.536250829696627,48.48351640701294,20.74725270271299,97.49230155944821,0.01149497479200364
