sec,SCL,SCR,TEMP,BVP,PVA,HR,MOTION
0,2.3763618946075473,0.0010000000474974,21.662999916076636,50.11965827941894,0.0,30.0,0.045979899726808104
1,2.36953338980675,0.12170309784996784,21.67400016784666,50.66483573913573,0.0,30.0,0.1345271222293376
2,2.362971907854082,0.09479123492783409,21.6800003051758,50.74175853729248,19.095848727226233,60.46363925933836,0.05352347586303948
3,2.355609303712846,-0.015011060592951236,21.6800003051758,49.769841098785406,11.658119773864772,77.45222930908204,0.049392470344901115
4,2.348513734340668,-0.017283399263396858,21.6800003051758,49.423076820373545,9.76801013946533,81.4111251831055,0.013829891383647921
5,2.3434019088745113,-0.015789804002270095,21.687000465393062,50.740537452697765,9.954823279380799,81.41527023315432,0.0
6,2.335467046499251,-0.017102351947687555,21.6900005340576,51.50244197845459,12.59218547344209,80.78346652984617,0.04795559775084255
7,2.324900019168851,-0.020476495102047913,21.698250722885167,49.12026853561402,13.046398067474394,78.69161529541017,0.12159527763724318
8,2.313264888525006,-0.02404590253718196,21.7000007629395,50.791819572448745,12.918192863464402,78.3289794921875,0.07866873331367967
9,2.3017059743404436,-0.026677880203351368,21.70649967193608,51.06410264968872,21.669108939170865,81.77002868652343,0.01436871849000455
10,2.29255044460297,-0.026054524257779106,21.7099990844727,48.80219774246216,13.727716946601854,85.81118297576904,0.0
11,2.2874767780303986,-0.021154210669919828,21.717749261856092,47.43711833953858,14.628815722465529,85.3405138015747,0.0
12,2.282326698303225,-0.017255465243943016,21.7199993133545,49.57692337036132,15.891941452026373,81.19469661712647,0.08944527115672829
13,2.278969764709475,-0.012837682478129855,21.72599945068358,47.84126987457277,16.1172161102295,80.2675552368164,0.055319567024707826
14,2.2749259769916548,-0.010914738685823964,21.7299995422363,51.435897731781004,17.412087678909295,79.23485851287845,0.032868443429470075
15,2.2688604116439826,-0.011918019107542924,21.7299995422363,51.840658950805675,13.343101501464838,87.94078216552738,0.04544107243418695
16,2.2679448127746586,-0.008416561828926172,21.7299995422363,50.691696929931645,13.761904549598734,92.48937892913823,0.046159507893025864
17,2.2700048923492444,-0.003215896516485335,21.735499668121342,49.925518989562995,17.04029297828678,91.54665756225583,0.09716845788061618
18,2.274735212326051,0.0031621910253306395,21.7399997711182,47.61172180175782,23.6385831832886,84.5481033325195,0.053164259344339417
19,2.277901601791384,0.006455555418506205,21.7399997711182,49.07631244659423,18.728327608108522,79.55771083831785,0.038795540668070345
20,2.2759940743446365,0.003431774876662475,21.7399997711182,49.210012149810794,16.513431453704825,80.49488220214843,0.0319703992456198
21,2.273819684982301,-0.000136795498201516,21.7399997711182,47.74603166580201,17.3870582580566,81.11428375244144,0.04490224644541744
22,2.271225690841676,-0.0034492243255954,21.7399997711182,49.67521343231201,17.89560461044311,81.37670154571536,0.037717886641621616
23,2.27057719230652,-0.0038154352339915625,21.74949998855591,49.54761905670166,15.95115947723392,79.97258453369143,0.11800309792160975
24,2.271836042404176,-0.00146503675059644,21.75,49.8937728881836,15.873015403747598,74.6138027191162,0.016883243992924665
25,2.271492695808412,-0.0007509856037131129,21.75150003433227,52.4010989189148,11.765567541122468,76.59568042755124,0.09321705922484397
26,2.2685170173645024,-0.002731754677370155,21.7600002288818,49.63919382095337,9.866910648345966,80.34030723571779,0.06771258488297457
27,2.2662281990051274,-0.003972621203865807,21.7600002288818,38.341269836109134,10.472527456283546,83.36929416656496,0.020295814797282246
28,2.2583315432071682,-0.010612606711219977,21.766750383377083,24.089132978441196,10.7692308425903,84.0336151123047,1.6813196610659364
29,2.22254862189293,-0.04026821581646804,21.774500560760508,78.08485927581788,10.7692308425903,84.0336151123047,0.17889054212719205
30,2.2142323136329702,-0.036933712335303466,21.7800006866455,64.06227130889894,10.7692308425903,84.0336151123047,0.07130476590245965
31,2.223693060874938,-0.017378549324348583,21.78875088691708,50.492063522338874,10.833333420753448,84.15049476623537,0.10776538532227267
32,2.2285760045051535,-0.0042851056386098065,21.78700084686276,46.186813068389895,11.252747535705533,88.34783821105958,0.014368718490004536
33,2.2376934111118287,0.011092764121713103,21.7900009155273,47.44383430480957,14.150793623924239,94.65937690734862,0.0
34,2.2528000712394705,0.02526137200184169,21.79450016021724,49.43406591415406,12.242979192733756,97.03732223510741,0.01724246218800546
35,2.2660374343395238,0.029315305547788755,21.8052493572235,48.57264947891235,11.5506715774536,97.1659927368164,0.047596380300819904
36,2.2716071605682386,0.024865638557821534,21.821749734878544,49.120879077911376,11.5506715774536,97.41503448486328,0.04472263697534802
37,2.2709204912185683,0.015082551119849094,21.837250089645405,53.586690998077394,11.56166043281557,97.04233322143551,0.01436871849000455
38,2.268173694610596,0.005003543116617897,21.855750513076778,52.08424911499024,14.780219793319713,91.76672744750975,0.00862123109400273
39,2.26752519607544,-0.0001421201816356093,21.87475004196167,47.78815631866456,14.627594947814902,89.5522384643555,0.00718435943126679
40,2.2672963142395024,-0.0018545559461926524,21.888249349594112,50.93894987106323,14.435287213325458,89.1687246322632,0.055139956995844876
41,2.2635197162628176,-0.004878750268835535,21.903249692916884,52.152014541625974,16.385836601257303,86.4468994140625,0.059989399835467375
42,2.259781122207641,-0.006591921730432615,21.923750162124612,48.20390720367432,20.285714912414583,83.88146324157717,0.05657682921737435
43,2.258522272109985,-0.005707820237148512,21.934750413894655,45.73870549201966,20.5128211975098,82.6446304321289,0.08549387380480765
44,2.2606203556060787,-0.0019652389353722825,21.950750350952184,48.27716712951661,20.98534860610965,82.28285923004151,0.033407270908355734
45,2.26142144203186,9.051958929830534e-05,21.96599922180178,50.155066967010505,27.06043939590453,76.75407791137698,0.0
46,2.259933710098266,-0.00044063159220965504,21.986499691009534,49.75824174880982,26.5305247306824,65.75690822601321,0.0
47,2.2567675113677974,-0.002969594229944,22.00100002288818,43.42490849494935,19.604394912719748,62.22754688262937,0.12159527540206891
48,2.254478567838668,-0.004606042883824515,22.014750337600702,54.91880331039429,20.6593399047852,60.91370391845701,0.23834111541509645
49,2.251846313476561,-0.005972726002801162,22.023750543594353,52.42124547958375,23.681318283081076,60.5598211288452,0.11746427137404676
50,2.251083374023436,-0.004711877746740303,22.02275052070619,48.497557926177976,19.01098918914795,59.67998313903807,0.0
51,2.2561189353466027,0.0018878911148931198,22.041500234603852,49.89255170822144,13.214285874366771,58.82379684448239,0.05496034752577546
52,2.2634434103965764,0.008830533141735902,22.087750101089476,47.600122356414786,15.689865469932585,52.94048490524292,0.13650282192975277
53,2.26691484451294,0.010358469816856078,22.11025061607363,50.24542140960694,13.669718956947332,61.402324962615964,0.14835701473057267
54,2.268173694610596,0.00863513493677599,22.12574987411499,50.64102573394776,9.295482444763199,86.3504570007324,0.1526676326990128
55,2.2663807868957524,0.00364024298032741,22.142999458312975,50.37484712600709,9.14041528701782,93.92101364135738,0.04580028932541608
56,2.2638630807399753,-0.0013194143775308136,22.15399971008302,48.13064699172974,15.5799751281738,101.351348876953,0.027120956405997293
57,2.2606203556060787,-0.004959776299074242,22.164749956130954,51.64652051925659,13.32356500625606,94.40252456665038,0.0
58,2.257606744766235,-0.006729795795399658,22.18075032234192,50.83211250305176,12.31990194320675,89.79668464660647,0.0
59,2.2547455966472616,-0.007235822523944037,22.20175027847294,51.10256395339966,14.393772864341756,88.8498489379883,0.024067603610456005
60,2.252113342285155,-0.007084982749074653,22.216749238967914,47.87362632751465,16.60683794021608,87.51523361206054,0.02765978351235392
61,2.2503967285156237,-0.006016140873543872,22.227499485015848,48.56349210739136,19.891330718994155,84.36704483032227,0.01149497479200364
62,2.2485656738281237,-0.005311875115148674,22.239999771118182,51.52136745452882,17.616605615615818,79.69786453247069,0.02298994958400728
63,2.2454756617546066,-0.005986093904357358,22.255750131607037,49.67521419525147,13.123321056366004,77.6302989959717,0.030533526465296734
64,2.244216680526731,-0.004961706325411752,22.26625037193299,48.47069597244263,16.82234394550324,76.86293220520022,0.054062303714454196
65,2.240211248397825,-0.006771144433878315,22.283750772476175,47.80586090087891,19.575701522827128,74.84135093688965,0.016883244365453732
66,2.2387616634368874,-0.005814745312090915,22.29450016021724,48.99084262847901,17.819291973113987,72.98838005065919,0.03807710409164431
67,2.2399823665618874,-0.0025517259258776574,22.310249471664427,49.67887659072876,15.057387518882734,74.79981327056888,0.0
68,2.23914313316345,-0.0019506386306602074,22.325749826431295,51.145909595489506,9.979242944717404,84.81463623046875,0.0
69,2.2373881936073277,-0.00236934424756323,22.343000221252442,53.9304030418396,13.040292739868198,89.54050407409669,0.0
70,2.238189405202863,-0.00064715572370909,22.35825057029726,48.49084243774414,13.434065818786607,91.33090858459471,0.0
71,2.237082970142361,-0.0014426021381950275,22.3700008392334,49.55189285278321,14.233211326599081,93.00943164825438,0.016524026542902005
72,2.239600896835325,0.0012909457520436048,22.380749464035027,48.09340677261353,13.965811681747434,93.3323097229004,0.01796089839190246
73,2.239181280136106,0.00091274578444421,22.392999458312968,47.87728948593139,13.80891306400303,82.5830688476563,0.0
74,2.238570928573606,0.00016833487070467223,22.406999778747558,47.78937740325928,16.135530829429612,73.32202243804936,0.0
75,2.2384564757347087,-8.889663889987873e-05,22.421000099182088,48.94139184951783,14.197191357612587,71.41570758819586,0.0
76,2.2375789582729313,-0.0010697742068259345,22.43150033950807,52.23321132659912,10.416361618041968,75.35657806396488,0.0
77,2.23700666427612,-0.00143298648763443,22.445500659942645,52.45787525177002,9.86569023132324,76.8245849609375,0.0
78,2.23639631271362,-0.0015038308600196127,22.456249713897748,49.486569213867185,9.185591912269603,79.21450614929199,0.0
79,2.2349467277526824,-0.0023092769377398726,22.46699924468996,48.78449316024781,13.7362635135651,84.3636684417725,0.0
80,2.23548078536987,-0.001091661912505465,22.478749513626088,48.19597063064576,15.321123194694518,84.78742027282712,0.0
81,2.235976696014401,-0.0001550629007397025,22.4949998855591,49.162392997741705,15.363247871398912,79.87415599822995,0.0
82,2.23548078536987,-0.00032944906197367,22.509000205993623,50.335164642333986,13.8339436531067,77.62666473388671,0.018679334037005915
83,2.2342219352722137,-0.0011919339471205101,22.519500446319604,51.648962116241464,13.08485946655274,79.60608921051025,0.0
84,2.232924938201901,-0.0020667711884015724,22.527250623703004,49.52503023147583,14.20390706062317,80.74102973937987,0.0
85,2.2336115837097137,-0.001010826650599435,22.539250612258876,49.76678857803344,16.03296720981599,80.90076351165769,0.0
86,2.2322382926940887,-0.0018377077030890675,22.55224928855893,49.403540897369396,14.992674160003656,80.73876609802248,0.0
87,2.23090314865112,-0.0023252623417647023,22.562749528884897,47.706959915161136,13.830891346931452,80.6993942260742,0.0
88,2.23242902755737,-0.00015451794414783363,22.57024970054625,48.76007347106934,12.976801156997706,80.57189044952392,0.0
89,2.230101937055584,-0.0020761606283485447,22.584500026702912,51.851037788391125,11.061050105094953,81.1613140106201,0.0
90,2.228614091873165,-0.002740031195571615,22.591750192642216,51.66910867691041,13.003663110733049,86.46820106506348,0.0
91,2.231246417760846,0.0005969237758108275,22.602250432968127,48.51587295532226,15.152625751495389,90.09965229034428,0.0
92,2.2359767198562595,0.004874548455700236,22.6100006103516,49.16300382614136,16.172772026062027,88.23488159179686,0.0
93,2.2395627498626687,0.007211900898255362,22.62375020980835,48.55982875823975,15.702075958252,83.00152740478515,0.0
94,2.24158453941345,0.00735576950246464,22.631249189376824,46.426129150390636,13.956044197082552,79.16562652587889,0.0
95,2.24158453941345,0.004886570438975427,22.64499950408935,49.3229549407959,12.16849832534791,79.68527297973634,0.0
96,2.24158453941345,0.00247895149514075,22.655749750137335,52.995115756988525,11.948717689514156,82.46637077331546,0.0
97,2.24280524253845,0.0019814059822237527,22.66624999046322,51.32051258087158,12.1367521286011,84.0924987792969,0.0
98,2.241164922714231,-0.0005372024737112891,22.67700023651123,49.41758241653444,12.739316320419325,85.17006816864016,0.0
99,2.2385708749294255,-0.0029123592743416802,22.687750482559196,49.73443202972413,12.971917152404819,86.8116807937622,0.0
100,2.238074946403501,-0.002699480752926275,22.695250654220597,48.32905988693238,12.3663003921509,84.27364349365236,0.0
101,2.237769722938535,-0.002311882516369175,22.702750301361128,48.144688892364506,11.572038865089404,83.01556644439697,0.0
102,2.2361674308776824,-0.0028729438723530225,22.71649923324587,49.88095216751099,8.65567750930786,106.53936958312997,0.0
103,2.23548078536987,-0.0022266251704422453,22.727249479293803,52.08302822113037,6.554334449768065,130.41298370361352,0.0
104,2.2364726066589324,-0.0004388037157696272,22.73774971961977,49.909035491943364,10.598290681839005,136.06770858764645,0.0
105,2.238723468780515,0.00192250294858238,22.74849996566773,48.036630153656006,13.0158729553223,104.7265625,0.0
106,2.24158453941345,0.004315455770119983,22.756250143051126,49.564102745056154,12.92612924575802,90.07484931945802,0.0
107,2.243682652711866,0.005326743662590117,22.763750314712514,47.796703243255614,12.844932556152298,89.8203582763672,0.01149497479200364
108,2.24616241455078,0.005878811853472115,22.774500560760508,49.80830278396608,12.844932556152298,89.8203582763672,0.0
109,2.245399355888365,0.003095053517608865,22.7800006866455,50.16483507156372,9.166056096553785,87.31895122528078,0.0
110,2.2435300350189187,-0.000185705363401205,22.78875088691708,52.42368726730348,9.379731297492993,85.29483261108402,0.0
111,2.2418515682220437,-0.00223274457384829,22.799749326705886,49.522588634490965,11.9658117294312,89.6191177368164,0.0
112,2.243873357772825,-0.0002872489822038875,22.8099994659424,49.1330894470215,11.681318235397324,85.47868022918698,0.0
113,2.2448270618915536,0.00081649990534056,22.817749643325797,49.08791217803956,9.712453889846818,86.72572860717773,0.0
114,2.2447507560253124,0.0009601749203283974,22.82224974632263,49.207570266723636,8.976800918579103,91.13994293212892,0.0
115,2.2435300350189187,-0.0002151330263586475,22.832999992370638,48.5390721321106,9.185592079162593,93.1631010055542,0.0
116,2.24158453941345,-0.0021540891262702574,22.840250158309946,50.809524059295654,9.866300201416006,94.05141830444339,0.0
117,2.2421567440032937,-0.0013722578747546775,22.85425047874451,52.131257724761966,9.322344183921816,94.15461349487308,0.0
118,2.24402594566345,0.0007443541613611174,22.8600006103516,48.7460319519043,10.749084222316739,94.30442295074465,0.0
119,2.247459369897841,0.004083319229539437,22.868500804901128,48.10989036560058,13.572649717330904,90.20361862182617,0.0
120,2.253219604492186,0.00857325972756367,22.87624979019165,49.2564100265503,13.150793766975397,79.86876850128172,0.0
121,2.25379180908203,0.006849379779305262,22.886999320983858,46.9780221939087,10.3296699523926,74.1198272705078,0.00574748739600182
122,2.25379180908203,0.00444575718720439,22.8899993896484,51.9078143119812,10.3296699523926,74.1198272705078,0.0
123,2.25379180908203,0.0022995358274783577,22.898249578475966,50.63797330856324,10.3296699523926,74.1198272705078,0.0
124,2.25379180908203,0.0006150745206468399,22.90899982452392,50.99389514923096,9.684981346130382,76.00980987548829,0.00574748739600182
125,2.255050832033157,0.0011816390910865627,22.916250085830644,50.445665550231936,9.33760657310486,77.64725074768066,0.0
126,2.254249644279479,0.000134494187659575,22.7900009155273,48.059829235076904,9.123321056365969,82.28409080505371,0.0
127,2.252761840820311,-0.0012744721920170876,22.79450016021724,49.20268602371216,6.6800975561142,74.06309089660643,0.0
128,2.2543641030788413,0.0003646654760814475,22.873499917983978,49.028083229064954,7.659340715408325,86.04233722686766,0.0
129,2.2535248219966877,-0.0005547242479223775,22.94875073432926,50.39255218505859,10.016483426094062,90.47835235595706,0.0
130,2.25196075439453,-0.00173514229536517,22.959749174118084,49.28754606246949,9.59340672492981,88.7273101806641,0.0
131,2.25226593017578,-0.0008815583758404876,22.9699993133545,49.412698650360106,9.732601046562193,87.45501461029059,0.0
132,2.2505493164062487,-0.0022430419834563076,22.977749490737896,50.09951171875001,8.473748445510864,87.2023048400879,0.004310615547001365
133,2.2488708496093737,-0.00308718001469965,22.98224959373473,52.32356538772584,10.414529681205767,91.79823074340815,0.00862123109400273
134,2.2507019042968737,-0.000324612581971425,22.9899997711182,43.61050052642823,12.6007328033447,93.0954208374023,0.012931846641004094
135,2.25196075439453,0.0010519481988012424,22.999749994277956,52.85714282989503,12.6007328033447,93.0954208374023,0.02442682161927225
136,2.250167846679686,-0.000510261171021378,23.007250165939304,55.04639806747438,14.285714387893648,89.8570976257324,0.0
137,2.2517318725585924,0.0013035365496761725,23.01500034332275,48.202686500549326,15.78510360717772,83.85068206787108,0.0
138,2.2592852294445036,0.007667434500763158,23.025750589370737,46.324786090850836,15.98046350479127,76.6827003479004,0.0
139,2.26599931716919,0.011707237758673734,23.030250692367545,48.981684875488284,9.589133381843567,60.48713865280156,0.0
140,2.268478870391846,0.011020047264173626,23.0400009155273,48.126984310150156,12.274114656448377,58.692198753356955,0.023349168151617066
141,2.2668766975402836,0.00606348404544401,23.049249649047816,46.97557954788208,10.9157508850098,67.34668426513674,0.011854192987084395
142,2.26569414138794,0.0017109144333516848,23.0599994659424,51.07387037277223,8.796092844009427,69.6459655761719,0.03125196285545827
143,2.26355791091919,-0.0023077783087500853,23.06899967193602,53.8162395477295,5.877899765968327,69.6827289581299,0.03448492512106898
144,2.2622608065605165,-0.0035285887250210797,23.07324976921082,51.78083028793335,7.737484622001645,70.54930000305174,0.0429265469312668
145,2.2680211842060096,0.00286212220089507,23.080999946594282,50.375457859039315,12.042124497890509,79.09366531372066,0.0
146,2.282174128293993,0.01560762468725444,23.0900001525879,47.9401707649231,12.918192863464402,80.8625335693359,0.0
147,2.293122690916065,0.022042128909379264,23.0900001525879,48.55067157745361,13.54090380668645,85.5276775360107,0.0
148,2.294419765472416,0.017423516232520357,23.099500370025613,48.59829053878785,13.1312579154968,83.0883647918701,0.0299947001039982
149,2.291673004627231,0.008562703791540085,23.103750467300415,50.43345565795898,10.805250549316417,87.32748279571531,0.00718435943126679
150,2.287820100784305,-0.00025221280284313516,23.1100006103516,48.70573883056641,11.457875013351444,90.12699394226073,0.0
151,2.2857982397079497,-0.004684054310200692,23.11800079345704,49.727716732025144,11.410866522789004,88.133003616333,0.0
152,2.282364845275881,-0.007281666726339555,23.12874937057495,49.485348033905034,10.186813402175908,85.42207794189453,0.0
153,2.27759635448456,-0.009171514213085135,23.13599929809568,49.80769233703614,7.612332260608673,86.69874877929688,0.0
154,2.271836042404176,-0.011170534859411413,23.143999481201156,49.57570180892945,9.094627904891967,91.5404581069946,0.0
155,2.2693944633007055,-0.009860086743719848,23.1499996185303,48.80830268859863,9.91453003883365,93.20386428833005,0.0
156,2.26630449295044,-0.00915170847438273,23.158249807357784,52.060439491271985,10.24664249420168,91.91918945312503,0.0
