sec,SCL,SCR,TEMP,BVP,PVA,HR,MOTION
0,0.09155552834272375,0.0010000000474974,29.66124987602232,50.64407825469971,0.0,30.0,0.2505545260384679
1,0.1268425550311803,0.02135608359531032,29.66800003051754,45.583027876261625,0.0,30.0,0.8089588448405258
2,0.3106784258037805,0.1997562944889068,29.665749979019136,49.32295483350754,0.0,30.0,1.3865813016891464
3,0.48730430006980896,0.3055714085698128,29.676250219345086,51.47496957778932,0.0,30.0,0.49769647680222945
4,0.19783623591065408,-0.04396601878106578,29.687000465393062,49.38888899688609,0.0,30.0,0.9452820535749196
5,0.37171544507145887,0.10033758524805307,29.6900005340576,34.94505530097522,32.84981670379641,57.84748744964601,0.7372948579490182
6,0.7246238589286804,0.36979052200913437,29.695000648498546,61.05067186355592,69.1575088500977,88.6262893676758,0.39406209178268903
7,0.9455778673291206,0.45840130299329757,29.71649951934816,53.79181900024415,61.385225868225085,82.33358783721926,0.8353613585233687
8,1.002380442619322,0.40301087498664867,29.755000114440925,53.061050224304196,58.4371185302734,79.9467010498047,0.5431375414133073
9,1.0161900877952545,0.2918574377894402,29.80124988555906,47.47008562088013,50.75335788726803,79.29783306121827,0.3313785590231418
10,1.0521637558937074,0.16774859130382538,29.834750032424942,51.533577442169204,14.529914855957,76.238883972168,0.06663493141531948
11,1.148144468665123,0.14904025867581375,29.87524995803833,51.17765560150148,14.529914855957,76.238883972168,0.0707659386098385
12,1.1807229518890336,0.12153643984347584,29.906749773025503,48.98168506622316,14.529914855957,76.238883972168,0.015805590339005006
13,1.185148182511326,0.08555519245564938,29.942249965667735,49.82112340927126,14.529914855957,76.238883972168,0.03017430901527407
14,1.195219269394872,0.059944872651249204,29.981249570846558,49.42185564041138,14.529914855957,76.238883972168,0.04310615584254267
15,1.216772973537445,0.04575050408020618,30.012750291824336,47.92796106338503,14.529914855957,76.238883972168,0.02406760342419148
16,1.2475585162639653,0.05094669405370952,30.044750070571872,52.93772926330566,14.529914855957,76.238883972168,0.08172208443284024
17,1.2598040729761173,0.04653110643848778,30.078499889373784,51.3253969192505,13.247863483428919,66.77544708251955,0.05244582276791336
18,1.251831105351452,0.023752026981674147,30.1182502269745,48.23687438964845,9.447497248649581,56.6570100784302,0.02909665517508986
19,1.2520981431007425,0.011850543785840262,30.14074940681457,50.354700946807874,10.207570123672511,69.49497451782224,0.0
20,1.261749622225764,0.011159470351412886,30.17150011062621,48.71184396743774,9.018314957618724,76.45846405029297,0.059091354720294496
21,1.2722403615713083,0.014917995734140283,30.19500031471254,48.480463695526126,6.25152635574341,78.3801422119141,0.12482823766767963
22,1.287614056468008,0.02545919567346574,30.226249456405647,50.96092796325685,5.636141681671142,80.06318664550783,0.12860003001987946
23,1.2894451737403851,0.020409507467411457,30.25525012016295,51.97619028091432,5.302808225154874,83.78363914489742,0.0312519630417228
24,1.277390357851979,0.001823384885210545,30.280250597000112,48.25885238647461,5.83638572692871,84.8656311035156,0.027300565503537676
25,1.2747962981462444,-0.004439868679037277,30.305249357223488,48.53663005828858,5.83638572692871,84.8656311035156,0.03807710353285072
26,1.2732703685760463,-0.007402849197387646,30.324749803543103,48.91941375732422,6.924297881126402,79.46533203124997,0.0
27,1.2715918213129005,-0.007487579609733032,30.33750009536745,50.4029302597046,5.699023139476776,72.13397598266604,0.0
28,1.270065912604328,-0.004981171662802765,30.362000656127954,47.979242801666274,5.25030517578125,75.5191955566406,0.0
29,1.2816248089075062,0.008365364465862498,30.383499288558948,51.409035301208505,5.25030517578125,75.5191955566406,0.02765978351235392
30,1.3066881299018862,0.029519892437383538,30.405249738693243,51.810134315490735,5.25030517578125,75.5191955566406,0.10848382376134402
31,1.3255333155393623,0.039828875474631785,30.4247501850128,47.00854711532593,5.25030517578125,75.5191955566406,0.10165868289768701
32,1.3486510813236239,0.049988295976072544,30.44025053977966,50.52075700759888,4.9719170570373565,77.02172241210937,0.07471733652055267
33,1.3672292292118047,0.05072437822818755,30.458499860763585,50.47252721786499,5.538461768627171,73.77369956970217,0.01724246218800546
34,1.3677633166313146,0.03234083685092627,30.479749536514287,48.268620109558114,9.08424949645996,53.7393646240234,0.06447962280362836
35,1.3670385062694523,0.01731127540115266,30.497749948501593,49.15934085845947,9.08424949645996,53.7393646240234,0.03340727128088476
36,1.3786736786365497,0.017775015905499455,30.51575036048888,52.760073471069326,7.960928165912627,49.58341560363766,0.12231371533125646
37,1.38401436805725,0.014034001179970793,30.535250806808442,48.211233234405526,7.1306471824646,46.5116271972656,0.06196509841829538
38,1.388821056485176,0.0137429823167622,30.551249504089327,48.789377307891854,7.1306471824646,46.5116271972656,0.11441091988235712
39,1.4075899571180364,0.0265585938002914,30.569249677658064,51.501831245422366,7.1306471824646,46.5116271972656,0.150691932067275
40,1.4110614448785805,0.021020856546238052,30.58350000381473,49.11965808868409,7.1306471824646,46.5116271972656,0.15823551006615158
41,1.4065980941057223,0.00930867264978585,30.59850034713744,50.31501827239991,7.716727828979499,46.710489654541,0.33173778057098385
42,1.3980529218912134,-0.0033107778928297077,30.614750719070457,50.45299148559572,11.816239428520232,54.98578920364382,0.4064551174640655
43,1.383289584517478,-0.019182012253440926,30.62574987411499,47.884615135192874,13.1135530471802,60.514373779296896,0.24121486023068434
44,1.3694418191909765,-0.02830809061415494,30.639499378204306,47.90293016433717,13.1135530471802,60.514373779296896,0.07399889957159768
45,1.3671147823333714,-0.02176559306681157,30.650749635696435,51.9609278678894,13.1135530471802,60.514373779296896,0.06196509860455993
46,1.3707769989967322,-0.010133747232612208,30.66124987602232,50.15018348693849,13.1135530471802,60.514373779296896,0.12177488841116432
47,1.3829462558031074,0.0074690916389044916,30.6747501850128,47.92796096801759,13.1135530471802,60.514373779296896,0.12069723084568959
48,1.4069032907485979,0.030403424333780987,30.68550043106079,50.10378494262696,12.57631244659424,60.514373779296896,0.0
49,1.414075148105624,0.030141890048980696,30.699500751495407,50.24114780426026,9.84981689453124,66.56931514739993,0.0
50,1.4049958854913727,0.012443046539556222,30.710249137878456,48.32539653778076,8.81562900543213,69.4846572875977,0.02712095603346825
51,1.3995788305997858,0.0005531769476078749,30.724249410629266,51.08241720199585,8.81562900543213,69.4846572875977,0.04490224551409484
52,1.4042710661888138,9.649708795226962e-06,30.7347496509552,51.74725255966187,8.81562900543213,69.4846572875977,0.079746387898922
53,1.4040039896965042,-0.0019466110563370847,30.7399997711182,48.50793657302857,8.81562900543213,69.4846572875977,0.02514525800943377
54,1.4048051387071625,0.0005709700679290026,30.749249982833863,48.36385860443116,8.81562900543213,69.4846572875977,0.0
55,1.402516242861749,-0.000651082098193,30.7600002288818,49.19291830062867,8.67704536318779,69.62371349334721,0.0
56,1.3945051372051243,-0.008172634954098567,30.771000480651878,49.600122165679934,3.2722833156585702,75.0469055175781,0.04939246866852041
57,1.3907666206359863,-0.00988845366518943,30.78150072097777,48.44200286865235,3.2722833156585702,75.0469055175781,0.012931846641004094
58,1.3978621780872353,-0.0005118889421282625,30.790000915527298,51.30525064468384,3.2722833156585702,75.0469055175781,0.050829341635108015
59,1.4102603167295478,0.011744379298761484,30.79275045394893,52.093406295776376,3.2722833156585702,75.0469055175781,0.05639721918851139
60,1.4065218091011065,0.006947747309459337,30.803499317169166,49.0573868751526,3.2722833156585702,75.0469055175781,0.00287374369800091
61,1.4036988317966475,0.002969643348478665,30.813999557495123,48.55189256668091,3.2722833156585702,75.0469055175781,0.0
62,1.4117481052875545,0.007835097843781062,30.824499797821055,49.26251544952393,3.2722833156585702,75.0469055175781,0.0
63,1.4089632928371452,0.00133803997669018,30.8299999237061,49.378510189056406,3.3406593799591073,74.65849342346189,0.0
64,1.3975569933652885,-0.00963610883336512,30.835750055313138,50.16849803924561,3.4676434993743905,73.9371566772461,0.0
65,1.3880581051111218,-0.015732105378992858,30.84025015830995,48.60683755874634,3.4676434993743905,73.9371566772461,0.010776539146900185
66,1.3846247613430016,-0.01543885327409954,30.850000381469705,49.741758060455325,3.6300366520881644,72.15553779602052,0.053882694989442856
67,1.3908047735691071,-0.0051473239931510446,30.850000381469705,51.96275959014893,3.9316239356994602,68.8468170166016,0.06465923395007853
68,1.3944288492202763,0.0021701052057323473,30.85825057029727,49.695970726013186,3.9316239356994602,68.8468170166016,0.0
69,1.399235501885415,0.00840527116088193,30.862750673294094,49.09096441268921,4.487179458141325,67.36072902679447,0.0
70,1.4181188344955475,0.02397526684217153,30.8700008392334,49.04395589828493,5.64102554321289,64.2742385864258,0.0
71,1.4188436567783387,0.01756805831100791,30.87375020980835,48.41330862045289,5.64102554321289,64.2742385864258,0.01724246218800546
72,1.4062929064035434,3.785644512390501e-05,30.8799991607666,50.599511528015135,5.267399406433104,64.33627014160156,0.0
73,1.3987014293670663,-0.009268781100399765,30.885249280929543,49.251526546478274,5.22588539123535,64.3431625366211,0.0
74,1.3919492274522782,-0.01586766850668938,30.8899993896484,49.99206342697144,5.22588539123535,64.37932033538819,0.0
75,1.3886303007602687,-0.015344831743277623,30.89649953842163,49.341269779205334,5.22588539123535,65.7894744873047,0.016344417445361616
76,1.3922162652015688,-0.005545452160004018,30.900749635696435,50.99633684158326,4.07814407348633,66.5188446044922,0.07381929047405716
77,1.3961073249578482,0.001878199000930145,30.9099998474121,48.4560438156128,4.07814407348633,66.5188446044922,0.03969358522444964
78,1.4114429265260722,0.01731770575279368,30.9099998474121,50.28815603256227,4.07814407348633,66.5188446044922,0.031611181050539026
79,1.4525666028261164,0.05096185039728882,30.91850004196163,50.55250301361085,4.07814407348633,66.5188446044922,0.02101425100117923
80,1.4729758471250527,0.05613755518570542,30.9200000762939,49.42307682037354,4.733211410045628,66.5188446044922,0.0
81,1.463057339191435,0.030233830958604834,30.926750230789178,49.078754711151134,4.756410408020022,66.96090011596681,0.04957207869738346
82,1.4471877187490427,0.0023012296267552273,30.93150033950807,48.88583650588989,4.61538457870483,69.0448760986328,0.21696764267981034
83,1.443487337231632,-0.009647799033064067,30.9400005340576,50.360195255279535,4.9615385651588415,64.69310569763181,0.13326986134052268
84,1.4833902984857565,0.024595604802016176,30.9400005340576,49.30708179473878,5.12820529937744,62.597808837890604,0.20367658194154492
85,1.5207754731178278,0.054273819271475086,30.94275059700012,50.159950828552255,5.382784056663512,62.30180025100706,0.1715265750885012
86,1.5422147244214985,0.06322320671752096,30.9500007629395,47.79670314788819,8.5225887298584,58.6510276794434,0.13326986022293552
87,1.5847117543220537,0.08425765968859196,30.95724954605107,50.287545967102055,8.5225887298584,54.15545272827152,0.0635815780609846
88,1.638576918840407,0.10362379197031253,30.959999084472702,51.10622720718384,8.5225887298584,47.4120903015137,0.05891174599528322
89,1.654789879918099,0.08209014255553483,30.96199913024906,50.8485957145691,8.5225887298584,47.4120903015137,0.04723716136068105
90,1.6417813628911961,0.039837611187249405,30.9699993133545,48.79853448867798,8.990842747688294,48.57774686813357,0.07723186053335665
91,1.6233558177947967,0.0017296813713983423,30.9699993133545,48.841269493103034,9.96337032318115,50.9987258911133,0.2582777101546526
92,1.6531876564025878,0.017343780039664105,30.97399940490722,50.810744762420654,9.645909881591797,51.889553833007824,0.3761012006551027
93,1.709456160664557,0.059781100042164345,30.9799995422363,46.978632640838626,8.37606811523438,55.4528656005859,0.07830951493233447
94,1.7325739413499825,0.06825716458261015,30.9799995422363,53.169108390808105,8.37606811523438,55.4528656005859,0.07256202772259704
95,1.7336421012878414,0.052085254620760704,30.9799995422363,49.21062259674073,8.37606811523438,55.4528656005859,0.0646592326462269
96,1.713843196630475,0.01347008306038334,30.989499759674107,48.79120874404908,8.37606811523438,57.84510841369631,0.08980448823422191
97,1.6935865432024024,-0.02069441179046409,30.9899997711182,49.62759466171265,6.491452968120579,55.56440296173095,0.06932906638830902
98,1.6774117290973691,-0.03683380391448739,30.99749994277955,49.30586099624633,4.956654453277593,52.09339437484742,0.09680923856794825
99,1.6706213533878347,-0.03337190779857337,31.0,50.04334554672241,5.00610494613648,51.65734100341799,0.10471203532069924
100,1.6696676433086413,-0.021135303238406795,31.005750131607034,51.96886453628541,5.00610494613648,51.761905574798604,0.27498134281486264
101,1.6933194935321816,0.011653836765617615,31.0100002288818,44.80647144317627,5.00610494613648,55.8399238586426,0.18733216114342197
102,1.7440946608781822,0.05916017182171347,31.0100002288818,51.4010989189148,6.339438343048098,57.25352554321292,0.1788905402645468
103,1.76885280311108,0.06873309463262561,31.011250257492037,50.2405372619629,8.376678788661959,56.040137481689484,0.12357097808271653
104,1.7707983821630517,0.05114415325224401,31.0200004577637,50.36141633987427,8.981684684753423,47.8220252990723,0.2422925107181073
105,1.769234290719036,0.029432829376310126,31.0200004577637,48.92124538421632,8.37606811523438,47.1883583068848,0.1196195797994732
106,1.769959089159969,0.01211828771047294,31.0200004577637,50.49328441619873,8.321123075485236,47.461674118042026,0.12698354702442877
107,1.7838831752538673,0.014616265520453456,31.020750474929837,49.678876972198495,7.27716732025147,52.6546745300293,0.08262013196945192
108,1.7812890917062763,0.007159169676378925,31.0300006866455,49.4877896308899,7.341269755363465,54.35423946380613,0.09339666962623591
109,1.7636646687984494,-0.01088941130437887,31.0300006866455,49.847985458374026,7.168497979640959,54.694257068634,0.18517685346305343
110,1.7505035459995284,-0.02122166357003151,31.0300006866455,50.361416149139416,6.37362623214722,50.5689010620117,0.2234335670247673
111,1.7529450297355669,-0.015005082834977637,31.036250829696627,49.77533578872682,6.26373615264893,50.5689010620117,0.30856822188943606
112,1.7725913286209145,0.007453192930552163,31.040000915527298,47.23992652893067,5.27472543716431,50.5689010620117,0.19828831050544962
113,1.7793816447258042,0.015741595276631416,31.044250202178908,51.607448291778574,5.27472543716431,50.5689010620117,0.07148437500000003
114,1.7730491042137184,0.008291893344721737,31.0499992370605,50.393162631988524,5.27472543716431,50.5689010620117,0.04562068171799186
115,1.751342806220056,-0.014765352418180536,31.0499992370605,49.30036630630494,5.145299291610721,50.33904228210448,0.13614360503852363
116,1.728377634286879,-0.035681487154215555,31.0499992370605,48.98779010772705,3.98046398162842,48.2703132629395,0.03197039794176816
117,1.7117832034826246,-0.04338004365563395,31.050499248504593,49.91330871582032,4.7521368026733395,47.837531280517624,0.03843632247298958
118,1.6908780157566095,-0.04902934879064562,31.0599994659424,48.71123275756837,5.854700982570647,48.76467323303224,0.07848912365734576
119,1.6775643199682264,-0.043267378583550474,31.0599994659424,50.03724040985107,5.76312589645386,52.58970260620115,0.09842571895569553
120,1.6787850677967104,-0.025250155013054637,31.0599994659424,49.108669185638426,5.450549411773686,59.94444770812991,0.10543047133833172
121,1.6947309792041785,0.0015779974637553124,31.0599994659424,52.02991447448731,5.88522577285767,69.9708480834961,0.15500254984945067
122,1.7104098618030512,0.020006550522521156,31.05674939155578,49.39987792968751,5.88522577285767,69.9708480834961,0.12806120291352271
123,1.7003769099712343,0.00916361096315084,31.05724940299988,48.82539691925049,5.88522577285767,69.9708480834961,0.011135756783187395
124,1.7001480132341338,0.005466427817009353,31.0599994659424,49.28205137252807,5.88522577285767,69.9708480834961,0.02748017460107805
125,1.698965430259704,-0.0002670889822184175,31.0599994659424,49.9774115562439,6.158730030059817,71.19544830322266,0.018499725125730046
126,1.6811883956193956,-0.019312056340277196,31.0599994659424,48.82783842086793,7.25274705886841,76.0938491821289,0.09734806679189206
127,1.6474654316902153,-0.044700269866734754,31.059749460220353,50.21062326431275,5.697191596031191,78.44403076171878,0.09142097048461438
128,1.6164510071277605,-0.06079450519755484,31.0499992370605,49.99633684158326,4.64896219968796,85.67848033905031,0.13219220973551285
129,1.6082873225212122,-0.05088088382035495,31.054499340057355,48.69963340759278,4.29792451858521,90.0225067138672,0.14638131596148005
130,1.6369365572929364,-0.006292936357203878,31.0599994659424,50.7557996749878,4.29792451858521,90.0225067138672,0.03179078958928585
131,1.659482094645501,0.02461132938042282,31.0599994659424,48.51526231765747,4.29792451858521,90.0225067138672,0.0625039244070649
132,1.6884746879339232,0.05180502040311694,31.0599994659424,49.75213661193847,4.131257843971257,89.91779041290285,0.015087154321372514
133,1.7142628133296938,0.0627645090222359,31.055999374389643,50.06593389511109,2.2771673798561105,86.7183216094971,0.0
134,1.704306170344351,0.0321356585249305,31.0499992370605,49.63858366012573,2.8083028793335,81.6882247924805,0.0
135,1.6809213519096406,-0.005398780391260525,31.05199928283688,49.74969491958619,2.8083028793335,81.6882247924805,0.0
136,1.66104617714882,-0.029253956116735945,31.0599994659424,49.19047613143922,2.8083028793335,81.6882247924805,0.0
137,1.6558961868286137,-0.031154732406139373,31.0599994659424,50.04334545135498,2.8083028793335,81.6882247924805,0.012931846827268612
138,1.6589861989021308,-0.01854105622041972,31.0599994659424,50.59706945419312,2.798534870147709,81.10492420196536,0.0
139,1.6550950527191166,-0.011598462192341685,31.0599994659424,50.1324785232544,2.71062278747559,77.0218200683594,0.06447962466627363
140,1.649487283825874,-0.009212805400602483,31.0599994659424,48.80036630630494,2.71062278747559,77.0218200683594,0.003592179715633395
141,1.646015787124633,-0.008336818811949302,31.0599994659424,49.741147708892825,2.9890110492706334,74.09138984680176,0.018679334037005915
142,1.6428113609552373,-0.009046796301845432,31.0599994659424,49.93284492492676,3.178876769542698,72.34337253570556,0.0
143,1.6339610069990136,-0.014093352062627679,31.0599994659424,49.92002449035645,4.00488424301148,64.8298187255859,0.0
144,1.6227835953235594,-0.019351261807605633,31.0599994659424,47.819902515411385,4.00488424301148,64.8298187255859,0.07148437388241294
145,1.62053287029266,-0.015338980685919528,31.063249540328986,51.6538462638855,4.00488424301148,64.8298187255859,0.09591119568794965
146,1.6198843181133231,-0.010569936060346645,31.0599994659424,49.88827829360962,4.00488424301148,56.7218795776367,0.02298994958400728
147,1.6136662065982779,-0.011236028210259968,31.0599994659424,49.03296718597412,4.04884014129639,40.94537506103516,0.030174308829009556
148,1.6063799023628285,-0.012822448066435737,31.0599994659424,49.212454700469976,5.365079283714294,47.40438108444218,0.01436871886253358
149,1.6001235902309456,-0.014133095997385672,31.0599994659424,49.65262546539307,5.7387056350708,49.979175567627,0.031970398873090757
150,1.5958510160446202,-0.013790249871090048,31.0599994659424,49.28449296951295,5.730158710479735,53.03440971374514,0.0
151,1.5911969095468552,-0.012946650944650171,31.0599994659424,48.93833942413331,5.025641059875488,62.068577575683605,0.0287374369800091
152,1.5997421145439188,0.00026465539467607934,31.0599994659424,51.70940141677856,4.56654453277588,64.3086853027344,0.0422081099823117
153,1.615421003103253,0.016128829307854167,31.050499248504593,49.697191715240486,4.56654453277588,64.3086853027344,0.0
154,1.6112628579139705,0.009587951493449487,31.0499992370605,48.90476160049439,5.412698435783388,65.75807037353516,0.0
155,1.5966139703989066,-0.006349032142315962,31.0499992370605,49.03113527297974,5.113553285598758,70.06391220092772,0.010058102943003185
156,1.587496569752696,-0.015030467393808061,31.0499992370605,50.29120864868164,4.386447083950047,72.12841243743893,0.007184359245002275
157,1.5777306407690062,-0.02270067417994142,31.052499294280977,49.57142868041993,4.27350425720215,73.8916244506836,0.0
158,1.5622043460607524,-0.030311108846217395,31.0599994659424,49.388278102874764,4.27350425720215,73.8916244506836,0.0
159,1.5548798948526372,-0.02616985160857439,31.0599994659424,49.96520137786866,4.27350425720215,73.8916244506836,0.0
160,1.5521332234144196,-0.018706939998082817,31.0599994659424,49.82600736618043,4.3345544338226345,74.53979873657224,0.0
161,1.5556047171354284,-0.007627123434212978,31.051749277114833,50.073870468139646,4.268009924888613,75.37095108032223,0.051727387309074446
162,1.5652943432331086,0.0065342361063812455,31.0499992370605,49.79365062713624,4.217338204383848,74.90926170349118,0.0
163,1.5618991613388058,0.003946680106683667,31.0499992370605,49.015873050689706,4.412698554992676,73.04197788238528,0.08154247533529985
164,1.5446180582046485,-0.012605452549178137,31.0499992370605,50.42368755340576,4.560439765453341,72.46998786926272,0.20385618731379482
165,1.5055925160646455,-0.04630077285692094,31.0425004959106,49.39804668426515,6.113553225994108,77.02087707519533,0.12518745809793477
166,1.471335491538047,-0.06702979058027268,31.040000915527298,49.678876972198495,6.1538462638855,79.12168350219724,0.05064973291009668
167,1.4635532766580566,-0.05603243252262474,31.04325037002559,49.446886253356936,5.211233377456665,80.09820823669438,0.057654480636119734
168,1.460119941830633,-0.03861045427620415,31.04949932098384,50.525030517578124,6.037240707874301,80.95280570983883,0.17907014843076452
169,1.459242498874662,-0.020533393090590844,31.04025087356563,48.89560413360597,7.413919425010684,81.2816219329834,0.03484414238482716
170,1.4598910480737666,-0.006675455532968005,31.03900089263912,49.86080579757691,6.729548263549806,83.5370635986328,0.13901734724640835
171,1.45878469944,-0.002524061439908065,31.0300006866455,49.37179479599,5.429181909561156,108.9174757003786,0.029455872438848014
172,1.458937299251554,-0.0008450377550615975,31.0300006866455,49.0323564529419,5.260073423385618,107.46811752319347,0.02496564835309984
173,1.4567247629165625,-0.0023420458703184927,31.0300006866455,49.55494527816773,5.814407777786257,86.19458084106442,0.06268353313207618
174,1.4511932641267744,-0.006852114072535148,31.029750680923456,49.32417573928834,5.851037740707397,79.81496658325196,0.015805590339005006
175,1.447340297698971,-0.00838701612083238,31.0200004577637,50.16300354003907,5.83638572692871,79.4176025390625,0.09806650225073099
176,1.4542832702398272,0.00030018133911652496,31.0200004577637,50.115384674072274,5.83638572692871,79.4176025390625,0.03915475830435755
177,1.4556565999984714,0.0022313651563308323,31.025500583648693,49.408425140380864,5.83638572692871,79.4176025390625,0.044004200212657454
178,1.4506591647863354,-0.0017391898742061599,31.024250555038464,49.249694824218764,5.94322347640991,78.26253128051755,0.08333856612443921
179,1.4507735967636075,-0.00088979290012497,31.0200004577637,50.10683746337891,6.10134321451187,76.66833438873289,0.030353916995227315
180,1.4453566163778269,-0.006353639537701334,31.013750314712514,49.71794881820679,5.909645938873291,71.48940582275392,0.010058102943003185
181,1.4387188315391495,-0.011234120512381204,31.0200004577637,49.398657226562506,4.850427448749545,72.01675415039061,0.001436871849000455
182,1.4350947678089148,-0.010998800490051513,31.0200004577637,50.10439548492432,4.271062493324284,74.69399147033691,0.0
183,1.4318139940500305,-0.0103230066364631,31.0200004577637,49.736263847351076,4.54212474822998,75.70522155761718,0.04166928380727771
184,1.4329966276884127,-0.005448654305655463,31.0200004577637,50.60561685562135,4.54212474822998,76.0938491821289,0.02011620588600637
185,1.4323099285364198,-0.003042360596009475,31.0200004577637,49.83028078079224,4.728937923908234,73.74297409057615,0.0
186,1.427121788263325,-0.005895542819052887,31.0200004577637,48.460317325592044,4.699633783102037,63.634826946258535,0.0
187,1.4195684731006657,-0.010746054165065277,31.0200004577637,49.57142868041993,4.178266167640688,66.12391395568845,0.029096655547618887
188,1.4139607012271909,-0.01299907222855837,31.0200004577637,49.55006113052368,4.27350425720215,68.1430969238281,0.007184359245002275
189,1.4098788499832176,-0.012999015720561145,31.020250463485745,49.38583641052246,4.63247859477997,70.41144924163817,0.0
190,1.4054154843091982,-0.01234269440174103,31.0300006866455,49.258241844177256,4.085470080375669,76.08695526123047,0.003592179715633395
191,1.4045380711555495,-0.008091156237060172,31.0300006866455,50.5702075958252,3.9316239356994602,76.7263412475586,0.04166928436607125
192,1.4116336584091211,0.0020805302203370764,31.0300006866455,50.7930404663086,4.061050224304202,82.14695053100587,0.07687264289706944
193,1.4156392484903366,0.006515001237858036,31.0300006866455,48.73809490203858,3.4267399609088884,85.88623123168948,0.06501844972372052
194,1.4194158852100407,0.009260216483380615,31.0300006866455,49.54945058822632,4.426129561662677,84.48176136016846,0.12231371346861122
195,1.4266640275716822,0.013333440851420159,31.0300006866455,49.451770401000985,4.98168516159058,83.7404022216797,0.042028501257300364
196,1.4358195781707765,0.0172181696165353,31.034250783920264,49.89499368667603,4.98168516159058,83.7404022216797,0.0
197,1.4546265959739657,0.02853512018918994,31.040000915527298,48.88705730438234,4.98168516159058,83.7404022216797,0.1215952768921851
198,1.4762566000223158,0.03994718519970777,31.040000915527298,50.798534965515145,6.960928022861478,79.88770675659181,0.09052292574197057
199,1.487701028585435,0.03781565134413541,31.04599990844722,50.4884002685547,6.5445666313171404,78.0234069824219,0.11459052916616204
200,1.467444387078284,0.0063744989223778305,31.0499992370605,48.808913230896,6.5445666313171404,78.0234069824219,0.06573688723146917
201,1.4468062400817836,-0.0193560872692615,31.0499992370605,49.06410274505616,4.901709449291231,77.362384223938,0.021553078107535855
202,1.4339121550321594,-0.031113029364496496,31.0499992370605,49.76129436492919,3.68742370605469,76.8738021850586,0.0
203,1.4290673583746,-0.02882942818105223,31.0499992370605,49.70940141677856,3.68742370605469,76.8738021850586,0.0
204,1.4238028973341026,-0.02243199627846481,31.058999443054212,49.34249095916749,3.68742370605469,76.8738021850586,0.0
205,1.4192632824182543,-0.015469572530128067,31.0599994659424,50.35775327682496,3.8754578828811668,76.72587261199952,0.0
206,1.4189962506294282,-0.008281959232408525,31.0599994659424,50.407204055786146,4.37118434906006,76.3358764648438,0.010058102943003185
207,1.4245658725500145,0.000779745547333715,31.0599994659424,49.436507987976086,4.37118434906006,76.3358764648438,0.02011620588600637
208,1.4237265914678612,0.0012950453145094676,31.0599994659424,48.751526355743415,4.37118434906006,76.3358764648438,0.0
209,1.4444410532712917,0.020923953386954963,31.0599994659424,49.486569118499766,4.781440734863282,64.97421789169313,0.04131006635725502
210,1.4714499413967126,0.040222430042922516,31.06349954605103,49.91025638580322,5.15262508392334,54.6946220397949,0.012931846641004094
211,1.4733954966068263,0.030900641065090922,31.0699996948242,49.582417869567884,5.15262508392334,54.6946220397949,0.03735866826027635
212,1.4629428893327696,0.011174867977388186,31.0699996948242,49.891330814361574,5.15262508392334,54.6946220397949,0.0
213,1.4547792017459842,-0.0038521865737038614,31.0699996948242,49.54517698287965,5.15262508392334,54.6946220397949,0.010058102943003185
214,1.4537873506545993,-0.009107052761828504,31.0699996948242,50.50427350997925,5.15262508392334,54.6946220397949,0.03646062314510347
215,1.473548081517219,0.010401544790511249,31.07024970054625,49.78876657485963,5.15262508392334,54.6946220397949,0.0
216,1.499603256583216,0.033709774911403666,31.0799999237061,49.18620281219483,5.15262508392334,54.6946220397949,0.0
217,1.5042573392391234,0.031191681232303398,31.0799999237061,49.855921554565434,4.8876679182052625,54.6946220397949,0.0
218,1.4922788113355652,0.011001381828464208,31.0799999237061,49.429181766510006,4.39560461044312,50.620362854003915,0.0
219,1.4765236437320708,-0.010884730800171358,31.0799999237061,50.067155170440685,4.170329844951634,47.30674238204959,0.01149497479200364
220,1.4670247495174396,-0.022197604365646818,31.0799999237061,49.38339424133302,3.4676434993743905,51.72239685058595,0.04418381005525591
221,1.4608447521924952,-0.023443199973553416,31.0799999237061,49.90109882354737,3.9377289414405823,67.98419332504275,0.0
222,1.4535584419965715,-0.02141728927381339,31.0799999237061,48.678876876831055,3.54090356826782,76.7754287719727,0.0
223,1.4504684209823575,-0.014972565276548281,31.0799999237061,50.70573854446411,3.6416361629962912,78.950824546814,0.026222911663353464
224,1.4465773552656138,-0.011866386374458665,31.0799999237061,49.47130651473999,4.01953615546227,87.33081760406495,0.03232961650937797
225,1.4386043936014143,-0.014196320739574744,31.0799999237061,49.27289371490479,3.7374848008155817,86.68361454010007,0.004310615547001365
226,1.4291436493396803,-0.017608771566301605,31.0799999237061,49.572649574279794,4.042124593257907,80.07812747955322,0.01149497479200364
227,1.4216666042804753,-0.018724718317389515,31.0799999237061,49.387667655944824,4.59096479415894,77.55408821105955,0.0
228,1.4142277419567135,-0.019385045208036918,31.088000106811542,49.515262603759766,3.8705739319324506,77.10909175872804,0.00718435943126679
229,1.4093447893857978,-0.01679482415784152,31.0900001525879,50.535409164428714,3.6141636371612607,78.4313735961914,0.012931846827268612
230,1.4059877216815966,-0.013102512876503183,31.0900001525879,49.918192958831796,3.6739926934242297,78.55020904541016,0.0
231,1.3998077362775814,-0.013193333288654694,31.0900001525879,49.428571224212654,4.7155066728591875,80.93246440887451,0.01149497479200364
232,1.392254388332367,-0.014938895450904965,31.08900012969972,49.07814435958862,4.942613029479977,81.28987884521484,0.00574748739600182
233,1.384243303537368,-0.01703029675409198,31.0799999237061,50.057997417449954,5.695970809459688,81.40853080749508,0.0
234,1.3782540351152406,-0.016908964887261395,31.0799999237061,49.68986558914185,4.520146489143368,80.45532016754149,0.0
235,1.3732185006141644,-0.015519277681596588,31.0799999237061,48.978022003173834,4.3223443031311,79.59835510253906,0.0
236,1.3688314199447607,-0.013454615673981585,31.08650007247927,50.344322490692136,4.307692444324493,80.71701698303222,0.027300565503537676
237,1.3666951656341526,-0.009921139804646338,31.082999992370638,50.133699607849124,4.52258849143982,82.76203041076664,0.007184359245002275
238,1.3604769915342294,-0.011377300135791284,31.0799999237061,49.530525398254404,4.612942576408386,85.53934898376463,0.0
239,1.3531525552272752,-0.013742811628617341,31.0799999237061,49.169719123840345,4.855921804904936,85.57679271697997,0.0
