sec,SCL,SCR,TEMP,BVP,PVA,HR,MOTION
0,0.9668263792991638,0.0010000000474974,28.894999504089363,49.83089122772217,0.0,30.0,0.0
1,0.968390442430973,0.0324744339101016,28.919500064849853,50.54212446212769,0.0,30.0,0.0
2,0.9703360140323639,0.07019821275025602,28.937500476837158,49.04395599365235,3.8461538672447206,64.81179943084717,0.0
3,0.9697637870907784,0.004766224868944799,28.96174931526184,50.53357753753662,7.208791255950928,93.1610595703125,0.0
4,0.9698782324790954,0.001286669576802485,28.98949975967407,49.532356643676756,7.22832727432251,89.78958511352539,0.0
5,0.9710226863622665,0.00156318899680623,29.022250509262086,52.169108390808105,8.04395604133606,86.5919620513916,0.0
6,0.9720145463943479,0.0017365239997161048,29.04924964904785,50.93589744567871,14.404761791229244,85.85919284820557,0.00574748739600181
7,0.9749519184231756,0.003938749368535305,29.075749826431274,47.06043968200684,15.595238208770752,84.36309509277343,0.0
8,0.9799111887812615,0.00745352103840555,29.102000427246093,52.64957275390625,15.951770687103272,84.4705364227295,0.0
9,0.981665988266468,0.006920410436578048,29.126499748229982,51.26373643875122,15.131257772445679,86.66166019439697,0.0
10,0.9829630360007287,0.005818195187020995,29.144999504089363,50.22832736968994,14.55433464050293,87.08272552490234,0.0
11,0.9839548960328102,0.0044245978875550925,29.16925005912781,50.46764345169068,22.680097675323484,87.11751174926758,0.01724246218800543
12,0.9864345178008079,0.004581068997504133,29.195750284194947,53.892552089691165,32.87912006378174,89.24549369812011,0.04023241028189658
13,0.9917371124029162,0.007586670899763651,29.218499279022218,49.28998770713806,27.71672773361206,94.46178455352782,0.11674583740532393
14,1.0003204450011254,0.013142587081529152,29.243499851226808,47.758852529525754,26.593406677246094,95.08716583251952,0.08944527357816692
15,1.005203366279602,0.013797370600514064,29.272250509262086,49.07387056350708,33.459706497192386,97.88524169921875,0.08118325769901269
16,1.00569928586483,0.009882773587014485,29.29924964904785,46.658119678497314,37.650181961059566,98.64273509979247,0.07381929121911521
17,1.0087130337953567,0.008515977452043395,29.320749711990356,46.46336965560913,30.89255137443542,86.10795288085937,0.10614890661090608
18,1.0165715515613556,0.011707303929142609,29.341750192642213,53.50976819992066,21.539072847366334,66.16222467422486,0.016344417072832566
19,1.0282830357551576,0.018193379486910948,29.369250202178954,46.07203893661499,21.831501960754395,79.64618301391602,0.024786039628088456
20,1.0399182200431825,0.023670007381588178,29.401749658584595,52.74053716659546,20.597680521011352,89.21505489349366,0.08405700288712972
21,1.0510193228721618,0.026685768691822837,29.42875027656555,49.23626375198364,20.406593322753906,92.47934913635254,0.08908605407923453
22,1.0591066986322404,0.02499970840290184,29.455749893188475,48.79609298706055,20.244199752807617,92.95120239257812,0.12177488580346103
23,1.063989695906639,0.019991377368569326,29.4847496509552,48.33150224685669,23.23687334060669,98.32052307128906,0.2307975329458713
24,1.069711896777153,0.016836959356442048,29.509500217437743,48.64041509628296,23.39438247680664,98.60311889648438,0.04993129540234802
25,1.0783333897590637,0.0175097131170332,29.542000198364256,44.99572639465332,19.659340190887452,100.07172241210938,0.15805590227246283
26,1.0845515161752701,0.016558206919580636,29.57399978637695,59.835775184631345,15.531135559082031,101.69491577148438,0.08585309181362381
27,1.0931730061769487,0.018565738387405828,29.603250455856323,50.97435884475708,15.531135559082031,101.69491577148438,0.09716845843940966
28,1.104312267899513,0.022260164236649817,29.627249908447265,49.88461561203003,11.597069644927979,101.69491577148438,0.09106175284832707
29,1.10988187789917,0.019626540224999135,29.652999687194825,48.55006113052368,8.434676694869996,106.22522888183593,0.05909135397523636
30,1.1105304062366486,0.013073101849295148,29.677500247955322,48.11782684326172,21.93284511566162,103.40073356628417,0.018679334037005883
31,1.1156422644853592,0.011953197908587712,29.698500537872313,47.16666650772095,28.41208772659302,87.62845344543457,0.04256732780486343
32,1.1188466936349868,0.00931169432587917,29.72499942779541,53.358974361419676,29.196581840515137,77.48221321105957,0.06555727850645773
33,1.1255607724189758,0.011571478284895376,29.748499965667726,43.052502918243405,29.631258249282837,73.71475582122802,0.34287353456020353
34,1.1354029834270478,0.016814435925334638,29.766500377655028,46.66727728843689,29.052502632141106,72.82102737426757,0.47003669664263725
35,1.1431089401245118,0.018641036003827986,29.783500766754152,58.56837606430054,28.986568450927727,72.7272720336914,0.2713891595602035
36,1.1509292960166932,0.01956587240565562,29.80349979400635,28.99023214103654,30.473747920989986,72.72837467193604,1.3612564872950315
37,1.143337818980217,0.0057560754561563525,29.82674984931946,73.31929187774658,88.47374725341797,72.77137756347656,1.6841933980584145
38,1.1412396430969238,-0.00010321029549231413,29.851500415802,46.55067157745361,88.47374725341797,72.77137756347656,0.32778638079762457
39,1.1516922593116763,0.007167585124261628,29.875749778747558,52.70634927749634,88.47374725341797,72.77137756347656,0.40753276497125623
40,1.1605044543743133,0.012639376986771766,29.890499401092534,50.57692317962646,88.47374725341797,72.77137756347656,0.1250078491866588
41,1.1724829852581025,0.020835363073274424,29.89999961853028,48.50549440383911,88.47374725341797,72.77137756347656,0.09519275967031716
42,1.1837748467922211,0.026032428117468875,29.909499835968017,45.17399263381958,88.02930221557617,69.26792221069336,0.0369994496926665
43,1.192663338780403,0.025321325566619583,29.89974961280823,50.93528680801391,34.133699560165404,66.36853199005127,0.0
44,1.2013229817152022,0.02399245607666669,29.895999526977544,48.374847412109375,17.631258010864258,60.906415939331055,0.0
45,1.2115848332643508,0.024152807658538195,29.92224998474121,39.046398115856576,17.818070363998412,61.458400630950926,0.7098146870732307
46,1.2183370381593703,0.021085799951106286,29.99574990272522,77.36324844360351,18.315017700195312,60.828155517578125,0.8921178057789803
47,1.2234488993883132,0.017742838896810983,30.01475033760071,31.014652068074792,29.858363246917726,61.175529098510744,1.2743257008492948
48,1.2303155601024627,0.0168707504868507,30.031250715255737,60.247863578796384,34.236873626708984,62.14396667480469,0.36101404447108504
49,1.2377162903547287,0.016796980984508943,30.046249866485596,48.14529914855957,34.236873626708984,62.14396667480469,0.24408860169351096
50,1.2420270442962646,0.014428181899711442,30.06374955177307,49.670940208435056,35.621489715576175,60.83346824645996,0.09788689408451312
51,1.2456511110067368,0.01249968421179795,30.07849988937378,54.479853534698485,40.86691169738769,61.081557655334485,0.06861063055694097
52,1.2533951669931411,0.014457026124000488,30.094750261306764,46.0250304765068,38.832723236083986,59.54907760620117,0.1316533803939819
53,1.2442014813423157,0.0004991469235392275,30.108000564575196,49.71489610671997,49.06654529571533,66.28856964111328,0.04705755244940516
54,1.2259285241365432,-0.017766725877299862,30.12599983215332,54.40659341812134,43.290598964691156,80.96480255126953,0.038436322286725014
55,1.2232200086116791,-0.017042558826506092,30.14324946403504,46.528082847595215,38.510379791259766,83.35765686035157,0.042746937647461854
56,1.2298959136009215,-0.006993734801653726,30.158249807357787,49.74664220809937,30.954823875427245,82.39420928955079,0.06447962373495095
57,1.2300866544246674,-0.00300046743795969,30.17475018501282,48.68070821762085,29.46581220626831,82.21334075927734,0.11099834740161893
58,1.2237540870904922,-0.004687096849374895,30.188500499725343,49.35531129837036,30.238095474243163,82.11318283081054,0.03592179641127583
59,1.2114703714847566,-0.01358426949009294,30.202000284194945,55.62026853561402,25.51159896850586,82.73247108459472,0.16559947393834587
60,1.2113178104162217,-0.011116496846079762,30.2134991645813,42.43345541954041,25.05494499206543,83.74040222167969,0.06591649483889336
61,1.216925573348999,-0.0029770465063847637,30.226999473571777,54.70146484375,25.05494499206543,83.74040222167969,0.1763760186731815
62,1.2244026005268096,0.0065408436465076575,30.23899974822998,47.755189037323,22.571428871154787,84.1045560836792,0.15051232222467653
63,1.2315744370222093,0.013483253377489693,30.257250165939332,51.92551908493042,20.186203479766846,78.13279571533204,0.1311145523563027
64,1.2355418473482132,0.014153675455599968,30.278500652313234,50.25579972267151,30.214896774291997,68.93530616760253,0.160211207345128
65,1.2392803728580475,0.01242283328901972,30.296499824523927,41.386446952819824,35.457874345779416,87.40621929168701,0.024067603610455967
66,1.2440107405185699,0.011678383755497585,30.307499408721924,55.2142858505249,43.052503204345705,91.23144416809082,0.09429471325129263
67,1.249313348531723,0.011695819557644382,30.324499797821044,47.925519323349,48.68376083374024,81.12666473388671,0.1163866182789206
68,1.2530137211084367,0.010837265616282765,30.343500232696535,48.294261360168456,36.90476179122925,74.47374820709229,0.01867933347821234
69,1.2513733476400375,0.005347135968622705,30.361750650405884,48.71123294830322,32.58119659423828,72.51968994140626,0.0
70,1.2473677963018417,-0.0009497768863638983,30.379499864578246,54.70146522521973,26.57631187438965,73.67800903320312,0.06322236042469734
71,1.246108889579773,-0.003197780111804555,30.40074963569641,47.476800727844235,25.722832107543944,76.4795000076294,0.005927096307277673
72,1.2475585430860519,-0.00173214120295592,30.42600021362305,51.94261312484741,26.038461685180664,82.13202819824218,0.0
73,1.2491226196289062,0.00038433983354478076,30.447000312805176,48.71001234054565,26.15384645462036,86.71876182556153,0.0
74,1.248321533203125,0.0004208519292333396,30.467749261856078,52.21306486129761,28.35714249610901,87.76360282897949,0.0
75,1.25297554731369,0.00487940820748913,30.48649969100952,49.5231990814209,31.93528723716736,86.81535720825195,0.0
76,1.2590792566537856,0.00899784015491599,30.51050024032593,46.369962978363034,35.44566612243652,85.50472831726074,0.0
77,1.2645725697278976,0.011518232594244126,30.531250715255737,51.42246627807617,37.65872964859009,82.80248947143555,0.0
78,1.2699896097183228,0.01311058432329441,30.552499723434448,47.48779029846192,36.21489715576172,79.35731887817383,0.0
79,1.2690740823745728,0.007951660302933247,30.573499774932863,50.32234401702881,32.99633679389954,80.13856105804443,0.0
80,1.2715536952018738,0.006529382860753633,30.597500324249268,50.22527523040772,28.990842056274413,84.52134532928467,0.0
81,1.2778481274843216,0.009088681568391566,30.620000171661378,55.850427055358885,26.83882794380188,89.77643165588378,0.0
82,1.2797555536031724,0.0074969403794966066,30.641249418258667,46.351648283004764,33.18925485610962,93.46122245788574,0.0
83,1.280671125650406,0.005977282358799075,30.659249830245972,51.81135516166687,41.444443702697754,91.42691898345947,0.01149497479200362
84,1.288491466641426,0.010970569378696322,30.677250242233278,42.4664225101471,41.66910934448242,89.35700416564941,0.0
85,1.297112938761711,0.014756640279665553,30.69875020980835,48.18437132835388,40.63492202758789,86.6008415222168,0.0
86,1.2969603359699249,0.010082167969085232,30.719999313354492,50.877899932861325,33.94993958473206,83.93471755981446,0.0
87,1.2917721807956695,0.0018767688732623075,30.744999885559082,49.581196784973145,26.54945068359375,83.57718811035156,0.0
88,1.2895214557647705,-0.0024042833421844476,30.769250440597535,54.9224666595459,25.037851333618164,84.502520942688,0.0
89,1.2911236613988877,-0.00203259005647846,30.79300003051758,49.06166038513184,28.1886447429657,86.13887767791748,0.0
90,1.296044784784317,0.0029212306792032374,30.81449956893921,40.42063498818315,31.656288194656373,89.42317752838134,0.2158899897709489
91,1.3016907185316087,0.0083459120127372,30.839250135421754,62.758852627873424,34.407814025878906,91.5645154953003,0.6006124258041382
92,1.3132496297359466,0.01732136493083087,30.861000633239748,46.89377307891846,34.407814025878906,92.09516143798828,0.2580981001257896
93,1.3195440769195557,0.018049442116171092,30.87874960899353,48.86263728141785,34.407814025878906,90.48573303222656,0.07381928991526363
94,1.3210318446159364,0.013623884157277596,30.899999618530273,46.13125743865967,34.69658060073853,86.78483142852784,0.004310615547001358
95,1.3310647815465928,0.017156032007187575,30.91549997329712,46.539072036743164,35.4578742980957,79.3126220703125,0.012572628818452346
96,1.3391903400421143,0.018002603156492086,30.932000350952148,52.29365091323852,37.1208776473999,58.052038669586196,0.012931846827268589
97,1.345599240064621,0.01732724700123069,30.95450015068054,53.66605672836304,35.60439682006836,49.14004898071289,0.025863693468272664
98,1.3523896008729934,0.017867862107232173,30.974499416351318,47.0976797580719,36.62881641387939,50.019632720947264,0.914568910934031
99,1.3578447818756103,0.016175753786228562,30.992999839782716,53.614163643633944,37.58241653442383,56.476548767089845,2.3668870747089388
100,1.3480025678873062,0.0004120396741200274,31.0,56.528693437576294,37.58241653442383,55.32503509521486,0.607257965579629
101,1.32286294400692,-0.024558284319937156,31.009250211715703,37.75885236263275,37.58241653442383,55.32503509521486,0.34053861945867536
102,1.3232062816619874,-0.019686719402670794,31.010250234603888,58.98717908859253,25.023199605941777,55.32503509521486,0.3026411265134811
103,1.3390758991241456,-0.0001933211198775175,31.021000480651857,36.58974361419678,24.004884719848636,55.32503509521486,0.21122015491127963
104,1.348155179619789,0.011088674515485718,31.03475079536438,60.583638715744016,24.004884719848636,55.32503509521486,0.142429918795824
105,1.357997363805771,0.021392073668539492,31.05074954032898,52.60256404876709,24.004884719848636,55.32503509521486,0.11943997032940383
106,1.3682973682880402,0.025717172445729335,31.062749528884886,46.794871759414676,23.85836458206177,56.1425449371338,0.15769668258726594
107,1.3728751778602601,0.020076861279085235,31.07649984359741,46.13980474472046,25.743590354919434,69.47157821655273,0.10686734225600954
108,1.3690984815359115,0.008319091622251976,31.087750101089476,50.903541278839114,30.000000381469725,73.8624641418457,0.12626511119306083
109,1.3651692420244217,-0.00010367957897870774,31.101250410079956,49.67094011306763,27.69230842590332,80.25038528442383,0.010956147685647
110,1.3615069687366486,-0.005778659833595118,31.115250730514525,50.217338180541994,24.833943367004395,85.12948493957519,0.06214470658451313
111,1.3648640304803847,-0.0021576573410129374,31.12275037765503,49.03662948608398,24.22466468811035,86.95976448059082,0.06304275244474405
112,1.3749351620674135,0.008168877247953732,31.13624930381775,48.72710599899292,28.107448196411134,85.07733154296875,0.06142627056688066
113,1.3774147778749466,0.009465392003767139,31.14749956130982,52.943833637237546,32.15262455940247,82.54926700592041,0.011135756969451896
114,1.3732566416263583,0.0036478624271694127,31.164499950408935,49.707570266723636,31.667887496948243,80.5595932006836,0.0
115,1.3711966276168823,-0.0001382112483497452,31.180500316619874,50.92124557495117,33.09462661743164,81.82038173675537,0.0
116,1.3728751778602601,-0.00040370339629586423,31.195750665664672,47.94261312484741,36.584250164031985,84.01787567138672,0.0
117,1.3705480962991714,-0.00313605112605723,31.209499168395997,46.68498187065124,36.29304122924805,84.48766021728515,0.0
118,1.3680303126573563,-0.003955204579688084,31.22374939918518,51.38888874053955,31.96642212867737,85.8171796798706,0.008621231094002715
119,1.3742866307497026,0.0032159142443560504,31.234499645233154,51.725274658203126,29.535409498214722,87.374973487854,0.039513976313173736
120,1.380390363931656,0.008128371974453277,31.25,55.45604395866394,37.899879455566406,88.07666358947753,0.0535234751179814
121,1.386684739589691,0.01213356598746026,31.26575036048889,38.52869367599487,37.899879455566406,88.17046356201172,0.02316955812275407
122,1.3896221727132798,0.011746944510377891,31.279500675201415,52.40842456817627,38.08913459777832,88.0848461151123,0.07543577197939152
123,1.387485861778259,0.005605383176589333,31.2897509098053,52.186813259124754,40.087911987304686,84.08845672607421,0.1061489082872867
124,1.3875621557235716,0.0024115732609061025,31.2982497215271,49.67521367073059,28.721611118316652,85.8552396774292,0.06447962466627354
125,1.3882106542587278,0.00097216083522651,31.3149995803833,48.45909624099731,30.124541091918946,89.68506317138672,0.05262543037533757
126,1.3860362768173216,-0.0019449926578090076,31.33099994659424,52.368131923675534,30.676434803009034,93.02029495239258,0.00826201327145099
127,1.3855784773826598,-0.0017361283316631327,31.346000289916994,46.76678857803345,27.73260107040405,94.74276542663574,0.014368718676269043
128,1.391529580950737,0.004272014048183287,31.357750558853148,51.531135654449464,28.271673154830932,94.08578262329101,0.0
129,1.3934370279312134,0.005008712259586852,31.37450008392334,46.40293016433716,32.33394374847412,90.14148197174072,0.0
130,1.3911480993032455,0.00186747128464044,31.39024939537049,52.400488662719724,31.073259830474854,87.67406215667725,0.0
131,1.3913769721984863,0.0013483002068823574,31.402499675750732,48.24542121887207,30.378510189056396,87.30766105651855,0.0
132,1.3949247628450394,0.0033609476871787926,31.416249990463257,52.357752895355226,30.86446933746338,87.2727279663086,0.0
133,1.3988921731710433,0.005616285582072982,31.43375039100647,50.70573854446411,32.82051467895508,87.2727279663086,0.015805590339004978
134,1.403584396839142,0.00873176762834186,31.44775071144104,44.37240486145019,35.36996307373047,85.5064193725586,0.0
135,1.4109088480472565,0.013063134835101608,31.454999923706055,52.521367359161374,37.09157342910767,83.0538776397705,0.0
136,1.4124729216098786,0.01032277652993792,31.46849927902221,48.85714292526245,37.23443126678467,82.12179565429688,0.0
137,1.4101840257644653,0.004391753132222175,31.482249593734743,46.695359992980954,36.61050109863281,80.25790710449219,0.0
138,1.41067995429039,0.002295504024368655,31.503500080108644,53.197802257537845,36.32600879669189,80.26494693756104,0.0
139,1.4130070209503174,0.0023791653715306378,31.521500492095946,48.84004878997803,36.52930402755738,81.04032516479492,0.0
140,1.4174321860074997,0.005351839069044165,31.539500617980956,46.912087726593015,37.44078063964844,79.80448303222656,0.0
141,1.4259392082691194,0.012014546035788914,31.55524935722351,52.347985649108885,37.991454124450684,77.96333694458008,0.03807710353285071
142,1.4326151221990586,0.01499983123503621,31.568999671936034,53.27533612251282,37.90842571258545,74.45792789459229,0.03681984134018418
143,1.440626233816147,0.017744299350306338,31.58324999809265,50.423687076568605,33.890110397338866,75.54078369140625,0.12393019516021009
144,1.4507736325263976,0.021110800839960524,31.60100040435791,43.21428580284119,53.626373291015625,86.3309326171875,0.1332698609679937
145,1.4558473438024522,0.018297534715384187,31.619250535964966,48.75457873344421,53.29914493560791,86.35447750091552,0.1481774050742387
146,1.4630954891443253,0.018033814476802888,31.635249280929564,55.28754549026489,40.70207500457764,87.4004135131836,0.09645002223551266
147,1.4678258806467057,0.015452521294355329,31.651499652862547,48.497557926177976,41.19658279418945,87.7834701538086,0.015985198877751815
148,1.4684362411499023,0.00977317264769221,31.6664999961853,50.83577508926392,37.771672344207765,82.31589069366456,0.0
149,1.47000030875206,0.006709830765612372,31.681000328063966,47.62881555557251,33.70390720367432,80.68828468322754,0.0
150,1.471945881843567,0.005227989272680077,31.702499914169312,53.401098823547365,36.76984148025513,83.1757797241211,0.0
151,1.475951412320137,0.0063225423917173855,31.720499324798585,47.39743585586548,39.00000009536744,83.96534461975098,0.0
152,1.476638075709343,0.004892957067931947,31.735749673843383,52.23687400817871,36.12820558547973,86.4815731048584,0.0
153,1.4736624956130981,0.00050648393953449,31.749749994277956,47.61599531173706,34.91086673736572,90.12203636169434,0.0
154,1.4757225126028062,0.0015728631169622024,31.76350030899048,49.109279537200926,32.5946270942688,93.69215698242188,0.0
155,1.4796518087387083,0.0040758257964625426,31.77875065803528,49.31807088851929,33.09401798248291,94.43429260253906,0.020475424081087094
156,1.4815210491418838,0.004646797565510453,31.794750118255614,51.63675193786621,34.13492126464844,92.31922016143798,0.00574748739600181
157,1.48972287774086,0.011137643572874324,31.81074948310852,50.38827819824219,35.96153860092163,86.84853706359863,0.030353917367756344
158,1.4951399177312852,0.012874953960999799,31.82599983215332,50.88095245361328,36.66910972595215,85.99691162109374,0.08315895758569235
159,1.4912106722593308,0.00513573418720621,31.843250226974487,46.40781412124634,36.77655792236328,86.0215072631836,0.0071843594312667805
160,1.4878536462783813,-0.000474143031328788,31.861000633239748,52.49145278930664,44.68498315811157,86.71362762451172,0.0
161,1.4884639978408813,-0.001370596887136295,31.8774995803833,45.44932823181152,35.471306037902835,87.63643455505371,0.0
162,1.4893032312393188,-0.0012794074544216975,31.89024939537049,47.65628776550293,37.98290596008301,85.55093765258789,0.0
163,1.4875102818012238,-0.0021143229241715224,31.90574975013733,54.106837558746335,39.42429733276368,80.51869354248046,0.0
164,1.4851451128721238,-0.0029267284236993577,31.922500133514404,51.43956060409546,39.015871906280516,77.2532787322998,0.0
165,1.4955214023590089,0.007383076337282493,31.94025053977966,46.93528728485107,38.048840141296395,75.45458469390869,0.0
166,1.5054781079292296,0.014578485954552833,31.95849952697754,54.24114761352539,38.305250549316405,74.69669952392579,0.0046698335558176
167,1.504562497138977,0.010433279909193464,31.979499530792236,36.84188029766083,39.579975605010986,76.01364212036133,0.04202850069850681
168,1.4958265841007232,-0.0010077984254166976,31.9974995136261,60.54334564213641,39.60927963256836,76.04562377929688,0.6241411928087472
169,1.4757225304841994,-0.020872797747142572,32.018749141693114,65.41575088500977,39.60927963256836,76.04562377929688,0.16541986800730224
170,1.4843821465969085,-0.009731630283931697,32.04649982452393,41.155677795410156,39.60927963256836,76.04562377929688,0.04813520684838293
171,1.503265482187271,0.010699200943054113,32.06825037002564,28.402930307993664,26.07081732749939,77.5519826889038,0.3148545391857624
172,1.5099795401096343,0.01672388848382973,32.08475103378296,70.14957275390626,23.19902229309082,78.50338783264161,0.056576829403638784
173,1.5012817800045013,0.007183262007310932,32.10074920654297,43.28388261795044,23.19902229309082,78.8436279296875,0.03610140550881621
174,1.4947202622890472,-0.00206035119335863,32.112750148773195,46.3522590637207,26.969474411010744,80.432470703125,0.03358687981963155
175,1.4957884192466735,-0.004405984975164708,32.1267502784729,49.07448101043701,32.62637357711792,82.32761993408204,0.0
176,1.4979247629642487,-0.002806605337536847,32.144750118255615,51.7246639251709,32.26923050880432,66.44414501190185,0.06034861728548999
177,1.4976195633411407,-0.0008634950419946176,32.16449909210205,49.84188041687012,29.047618865966797,76.2640495300293,0.011854192614555345
178,1.5002517700195312,0.003180694580078078,32.18049955368042,52.771673107147215,37.213675022125244,82.53284358978271,0.0
179,1.500213623046875,0.0024284725990582423,32.192749214172366,47.658730030059814,37.152625274658206,85.3656509399414,0.0
180,1.496398815512657,-0.0021558138537784246,32.20649967193604,53.15506706237793,37.595848369598386,86.60732307434083,0.0
181,1.493194341659546,-0.00483313287841151,32.223750591278076,42.4755802154541,38.27533674240112,86.99286937713623,0.004310615547001358
182,1.4959791719913482,-0.0012935374594235049,32.23450050354004,57.13675198554993,39.55189142227173,84.8567705154419,0.12806120142340655
183,1.5037995487451554,0.0063440971425733975,32.25049991607666,41.8846152305603,39.80463790893555,84.21052551269531,0.05424191225320096
184,1.5145191848278046,0.015354567184112905,32.262248802185056,53.89743595123291,38.65995006561279,83.39050102233887,0.012572629004716864
185,1.517685490846634,0.014762669801711975,32.276249408721924,46.16056156158447,29.31623935699463,86.41678237915039,0.0
186,1.5142521858215332,0.007111217873170922,32.293750286102295,53.0482292175293,31.814408922195433,87.92181377410888,0.015087154321372493
187,1.5162740081548691,0.00491416666191066,32.30550003051758,45.63064699172973,33.062270927429196,88.9652645111084,0.018858943134546263
188,1.519020676612854,0.00404268559068437,32.32175006866455,51.96398057937622,32.1770453453064,91.6498212814331,0.0
189,1.520508423447609,0.0034312590491026177,32.33575086593628,46.42796106338501,29.42612991333008,93.31394958496094,0.0
190,1.5236365795135498,0.005553969903849017,32.349248600006106,57.89438381195068,29.543955326080322,91.04753150939942,0.12033801525831218
191,1.523674726486206,0.003952341998228755,32.363249969482425,42.54822959899902,29.597068786621094,90.84027099609376,0.11638661585748193
192,1.5219961911439897,0.0006819879741897171,32.373999786376956,51.29792432785034,30.612942504882813,90.32505798339845,0.06717375777661799
193,1.5220724821090699,1.5156627341700074e-06,32.3895001411438,50.74358949661255,31.550672245025634,89.45273551940917,0.06699414849281307
194,1.5269172996282578,0.003950060933129808,32.402251148223876,44.59829044342041,27.669108295440672,88.97797431945801,0.13901734743267294
195,1.529969173669815,0.005619561404455395,32.41599884033203,52.91452989578247,33.6617829322815,89.20610523223877,0.10848382432013745
196,1.5261925011873245,0.0009664167868322476,32.43324966430664,45.14774103164673,32.479852724075315,90.87225284576417,0.23708385378122326
197,1.5237891793251037,-0.0017862223307019674,32.443999481201175,54.840659046173094,30.663002967834473,90.76394329071044,0.14422600790858264
198,1.527336946129799,0.0011488314343296175,32.45474996566772,49.63003664016723,25.660561943054198,95.802610206604,0.10273633375763888
199,1.5367595493793489,0.008892967877909483,32.4705005645752,48.98962163925171,18.82661757469177,99.88026561737061,0.11656622607260939
200,1.5354243576526643,0.006022632966050828,32.49175100326538,51.99267387390137,19.281440925598144,101.08341827392579,0.14171148482710122
201,1.5358439952135088,0.005410485743777798,32.50574903488159,48.12209949493408,16.785103940963744,101.79961071014404,0.3175486780703068
202,1.5358821302652361,0.002581240031577165,32.5185001373291,68.3168494821526,16.60561752319336,98.45217628479004,2.218889332562685
203,1.530922856926918,-0.003931341705083435,32.532500171661376,55.17032942771912,16.60561752319336,94.41384887695312,0.5892970584332943
204,1.5512558370828629,0.014927348739001867,32.550749969482425,41.277167320251465,16.60561752319336,94.41384887695312,0.2006232269108295
205,1.5683462023735046,0.027153611974790676,32.566000366210936,50.58669090270996,17.29731421470642,93.54509754180908,0.17206539958715436
206,1.580858787894249,0.031818638462573254,32.5792516708374,50.07875452041626,18.676433944702147,86.57079010009764,0.1162070097401738
207,1.5949735969305041,0.035807061009109006,32.59099998474121,51.39438362121582,15.54700825214386,77.98557910919189,0.13470673635601993
208,1.6044724881649017,0.03165224259719248,32.60149879455567,56.893162441253665,13.504273176193237,82.2258373260498,0.3922660071402788
209,1.6165654480457305,0.029639541730284647,32.615249729156496,32.29548220694996,13.431013107299805,82.19178009033203,0.4506389182060957
210,1.62808618247509,0.02884261864237484,32.62550010681152,80.3046395778656,21.28815588951111,82.09927349090576,1.6599461734294891
211,1.6407513737678527,0.029407590301707337,32.639499473571775,40.76434688568115,42.00244140625,81.85539245605469,0.25720005184412
212,1.6425061792135238,0.02025599461048837,32.650751399993894,42.35409016609192,42.00244140625,81.85539245605469,0.16272573359310621
213,1.6369365513324738,0.006725456943968257,32.66099967956543,50.61355323791504,45.53724002838135,80.51200294494629,0.23115675225853916
214,1.632244348526001,-0.00263339224620718,32.67474918365478,49.73687448501587,48.51770439147949,74.85289306640625,0.08441621977835888
215,1.634723949432373,-0.0022100948196566226,32.68199996948242,50.13186817169189,19.09890155792236,65.90654602050782,0.07220280840992924
216,1.6400265693664546,0.002562463851063455,32.69599990844726,49.02380952835083,21.179487228393555,76.17326126098632,0.04741677120327945
217,1.6388821393251416,0.002032018413592538,32.706749725341794,47.4859582901001,23.415750408172606,80.91620674133301,0.04885364323854442
218,1.6394162178039546,0.0027591932448558076,32.72400054931641,51.92185564041138,29.749694967269896,81.41816368103028,0.03394609782844779
219,1.6413998663425442,0.0034380336572211825,32.73900089263916,50.33760690689087,28.951770782470703,80.43732471466065,0.035921796225011314
220,1.6354106307029723,-0.00376936199372717,32.75524911880493,49.261293983459474,29.181928634643555,78.15190029144287,0.09806650336831804
221,1.6292687714099885,-0.008751190081238699,32.76549949645996,50.96337008476257,28.78876624107361,78.12731113433838,0.10938186887651677
222,1.6267128258943557,-0.008853558567352544,32.785750198364255,48.60317449569702,31.334554958343507,83.68965606689453,0.03951397463679311
223,1.6354487746953965,0.0016184408239496326,32.79724988937378,49.00183115005493,26.62759461402893,92.56011562347413,0.00574748739600181
224,1.646053931117058,0.01213095455896104,32.81425065994263,53.256409883499146,27.145299911499023,96.18355197906494,0.0896248802542686
225,1.654408398270607,0.018183342739939642,32.82925109863281,47.97130632400513,45.32356643676757,99.77667541503907,0.09896454829722635
226,1.6598635911941528,0.018481246661394793,32.845249271392824,45.338217401504515,48.84004974365234,100.0,0.04364498201757666
227,1.6565446883440018,0.008838302304502525,32.85599975585937,47.69047627449036,47.960928916931145,100.0,0.03771788608282801
228,1.6512421160936355,-0.0011296446857158725,32.8699990272522,52.095848846435544,31.893163108825682,101.35443115234375,0.03215000778436658
229,1.6481139242649079,-0.005934486759360825,32.88425035476685,47.88156280517578,35.10134363174439,98.24159545898438,0.00574748739600181
230,1.6478468954563141,-0.0055637345736612945,32.897751045227054,52.09829053878784,33.52869415283203,89.50414352416992,0.0
231,1.6552476435899734,0.003102039859504608,32.908250141143796,48.60256385803223,30.744811296463013,85.14046020507813,0.0
232,1.6537598699331284,0.0022447811825258824,32.92174892425537,48.161172199249265,31.614773273468018,86.9213794708252,0.0
233,1.6444135665893556,-0.00619162602815772,32.9334997177124,52.28998765945435,33.40109834671021,85.92368621826172,0.0
234,1.638767671585083,-0.010137800942175043,32.943999481201175,47.69352855682373,31.95909662246704,82.83281898498535,0.012572628818452346
235,1.6338084012269973,-0.012893811101093841,32.95450000762939,51.103174686431885,30.87606773376465,83.74351959228515,0.0
236,1.6322062015533447,-0.010701840254478115,32.965250205993655,51.09401712417603,30.991452789306642,83.21440200805664,0.0
237,1.6312143802642822,-0.0069200220401398295,32.975750255584714,49.51892528533936,31.318681001663208,82.21363162994385,0.007184359245002263
238,1.6296120971441272,-0.00481605427339668,32.989501571655275,53.63003654479981,32.12759413719177,83.72357540130615,0.10543046724051235
239,1.62736134827137,-0.0045263964275363226,33.00074987411499,41.632478618621825,39.396826171875,86.99872970581055,0.06663493029773233
