sec,SCL,SCR,TEMP,BVP,PVA,HR,MOTION
0,0.21202734578400845,0.0010000000474974,31.911999893188476,44.50244185454212,0.0,32.22645721435547,0.4991333395242691
1,0.26615955010056497,0.07425939898239445,31.925750207901,51.304640013026074,0.0,44.843048095703125,0.6013308618217706
2,0.09430219382047653,-0.07373096938244998,31.939500522613525,48.87667869939469,55.039682388305664,51.58723449707031,1.5615204215049743
3,0.2479628890752792,0.08100637122988696,31.956999588012696,45.00488413628191,74.96947479248047,53.83580017089844,0.3486210234463215
4,0.4165395051240921,0.20286586545407767,31.96724925041199,62.347374725341794,83.60195541381836,50.662529945373535,0.12536706607788797
5,0.46914578676223756,0.18591476492583747,31.969999313354485,44.68925514221191,84.83516693115234,50.209205627441406,0.09034331738948816
6,0.46952726542949674,0.14154160954058168,31.978499507904054,51.28693513870239,84.83516693115234,50.209205627441406,0.05100895110517736
7,0.4635761596262455,0.0810632366687059,31.98599967956543,46.70879125595093,89.81013317108153,51.83645820617676,0.02424721270799635
8,0.458502459526062,0.02055164953635535,31.993499851226808,50.83028106689453,37.2081797838211,53.28775863647462,0.045979899726808035
9,0.4625080093741417,0.0002338031118597505,32.00524950027466,51.79242992401123,10.605616283416747,54.622620010375975,0.039154758304357495
10,0.47345653027296064,0.008480065129697267,32.02649993896485,46.78021955490112,12.722832679748535,56.17977523803711,0.019038552045822124
11,0.4746772713959217,0.00857002094853664,32.04549999237061,47.72832717895508,12.722832679748535,56.17977523803711,0.0
12,0.4690313428640366,0.001927366568270335,32.0617506980896,52.31013402938843,11.318070936203004,58.97966318130493,0.00574748739600181
13,0.4675817146897316,-0.0010123550193383945,32.080000495910646,51.5769229888916,8.40048885345459,64.79481506347656,0.09195979647338387
14,0.4725791208446026,0.0019834249729683106,32.09824914932251,50.72100114822388,8.40048885345459,64.79481506347656,0.07238241769373413
15,0.48974578008055686,0.016818032553419415,32.11474981307983,48.81868143081665,8.338217759132386,64.79481506347656,0.02586369328200815
16,0.5076754048466683,0.029786371206864653,32.13075037002564,49.2466420173645,4.683760726451874,70.33499794006347,0.0
17,0.5073702231049537,0.02208122164010996,32.14875020980835,49.07081851959229,4.273504257202148,86.51766204833984,0.0
18,0.5034028232097626,0.010657178470864838,32.170249462127686,49.42612943649292,4.273504257202148,86.51766204833984,0.0
19,0.4996261425316334,0.0003749857808998104,32.1882493019104,49.4768009185791,4.273504257202148,86.51766204833984,0.009698885120451443
20,0.495620596408844,-0.006966785620897968,32.20000076293945,50.628205108642575,4.273504257202148,86.51766204833984,0.03448492437601086
21,0.497795033454895,-0.003944032523577282,32.208499336242674,48.75885238647461,4.273504257202148,86.51766204833984,0.04562068171799179
22,0.5016479939222336,0.0016591473679454477,32.22150049209595,50.60012226104736,4.7521368026733395,91.38030834197997,0.04975168760865921
23,0.5092013329267502,0.009348180593224198,32.23675088882446,49.23748445510864,5.470085620880127,97.9591827392578,0.02155307773500679
24,0.5331965133547782,0.02938606687821444,32.2524995803833,51.151403999328615,7.52136744260788,100.47928276062012,0.00574748739600181
25,0.5385372415184975,0.02643836606293911,32.244500923156735,48.5915753364563,8.058608055114746,101.01010131835938,0.06968828532844776
26,0.5287331834435463,0.00923561179079111,32.25999898910523,51.05250301361084,8.058608055114746,101.01010131835938,0.04256732854992147
27,0.5283898487687111,0.003365870687412055,32.2879997253418,47.46947479248047,8.058608055114746,101.01010131835938,0.07471733558923
28,0.53292947858572,0.0024940799510658924,32.309501266479494,50.579365253448486,7.319902229309082,101.01010131835938,0.042567328922450506
29,0.5303354039788246,-0.002154118309243775,32.31775035858154,51.495726871490476,4.356532335281372,86.34764022827149,0.06627571396529669
30,0.5206839278340339,-0.009190347022376914,32.334501075744626,48.050671672821046,2.222222328186035,73.08160400390625,0.09914415478706357
31,0.522171700000763,-0.005035919843066917,32.350249195098876,49.036630153656006,2.222222328186035,73.08160400390625,0.0235287770628929
32,0.5339594632387161,0.006504433072404887,32.36549968719483,49.902930068969724,3.6965812146663675,83.23541450500488,0.03646062333136794
33,0.5334635287523269,0.005333478830289045,32.37274951934815,51.24542112350464,3.9072039127349862,72.75431213378906,0.013470673561096177
34,0.5273979917168617,-0.0003901886747371552,32.3805009841919,50.186202716827395,5.247863173484802,66.74550704956054,0.17098774705082173
35,0.516945406794548,-0.010353402490727574,32.39099960327148,48.17704544067383,5.396825313568115,66.22516632080078,0.07220280896872278
36,0.5006561435759067,-0.024397262232378078,32.404750728607176,48.297313594818114,5.396825313568115,66.22516632080078,0.04490224514156575
37,0.4875331871211529,-0.030437960848212188,32.41524896621704,50.035409164428714,5.396825313568115,66.22516632080078,0.03987319432198998
38,0.4793694905936718,-0.028163010580465143,32.42574939727783,50.65140409469605,6.009157490730286,65.23601961135864,0.03304805252701041
39,0.4784157879650593,-0.01864645914174611,32.436499214172365,50.09767999649048,6.837606906890869,63.897762298583984,0.0
40,0.4769661597907543,-0.011231275857426169,32.44725017547607,49.938339424133304,6.412087905406952,63.897762298583984,0.0
41,0.4721594922244548,-0.009262859460432028,32.45474996566772,48.62942619323731,5.836385726928711,68.15215282440185,0.0
42,0.47154911756515505,-0.005407858471153248,32.465250205993655,49.81684970855713,5.836385726928711,68.37606811523438,0.07256202660500999
43,0.47231207937002173,-0.002616204312653225,32.470001220703125,49.99694738388062,4.9664225578308105,74.67983627319336,0.008621231094002715
44,0.4672383852303028,-0.00603540974552738,32.47650012969971,48.91514043807983,4.44444465637207,78.07417297363281,0.03304805252701041
45,0.460448008030653,-0.009933519829064564,32.48700103759766,51.08058614730835,4.44444465637207,78.07417297363281,0.00574748739600181
46,0.4565950468182563,-0.010453343857079703,32.494500923156735,48.49267387390137,4.884005069732666,81.64983825683593,0.028378219343721846
47,0.46250801235437394,-0.00204502137639791,32.5,49.88034210205078,5.1770453453063965,84.03361511230469,0.01077653914690017
48,0.4709768995642662,0.007436031952965973,32.5,49.83760643005371,5.251526415348053,88.8352237701416,0.004310615547001358
49,0.47097690105438234,0.007153019460383758,32.50324945449829,49.041514205932614,4.708180904388428,96.23434143066406,0.018679334037005883
50,0.4691076405346394,0.00405415481072846,32.50699882507324,50.13003673553467,4.806471371650696,101.64498233795166,0.0
51,0.4666280150413513,-0.0005544350563241029,32.51099853515625,50.16788759231567,4.794261360168457,104.87689361572265,0.01724246218800543
52,0.4616687461733818,-0.006524235347751485,32.52000045776367,50.094627666473386,7.971917140483856,101.8731704711914,0.12949807103723282
53,0.4576250471174717,-0.00902243704767893,32.52849903106689,48.489010906219484,12.380952835083008,100.84033966064452,0.07292124629020683
54,0.45842615738511083,-0.005320522034889975,32.529998779296875,50.87606859207153,12.380952835083008,100.84033966064452,0.033048052340745884
55,0.45968504920601844,-0.002109595107322035,32.529998779296875,48.269841480255124,12.380952835083008,100.84033966064452,0.025863693468272664
56,0.45064394250512124,-0.008555254375096365,32.53750038146973,49.87973136901856,13.388278603553772,104.88567733764648,0.0
57,0.44274727776646616,-0.012900980981066781,32.540000915527344,50.27350473403931,10.58363847732544,114.33353996276855,0.0
58,0.43988616913557044,-0.012036038725636843,32.540000915527344,48.996947574615476,3.8583638668060303,117.99410247802734,0.008980449289083476
59,0.43748282790184023,-0.010791984363459,32.540000915527344,50.041514205932614,4.913308930397034,83.86934967041016,0.0
60,0.4406109802424908,-0.003300726565430485,32.540000915527344,50.1068377494812,7.225885200500488,67.89322624206542,0.02191229593008755
61,0.44991912841796877,0.007955460331868312,32.54425020217896,49.27411489486694,4.673992633819581,77.05036973953247,0.058013699762523144
62,0.4543061636388302,0.01110235557425762,32.55149955749512,50.18620309829712,4.322344303131104,79.84031677246094,0.06052822638303036
63,0.45678579285740845,0.01051623985404144,32.560001373291016,49.42612981796265,4.322344303131104,79.84031677246094,0.03987319432198998
64,0.44969023764133453,0.00041997106163761997,32.560001373291016,48.89499406814575,4.322344303131104,79.84031677246094,0.010058102943003168
65,0.4403820902109146,-0.010174455959349824,32.560001373291016,50.142246341705324,4.322344303131104,79.84031677246094,0.0
66,0.4334772787988186,-0.01522459797561163,32.560001373291016,50.08302803039551,4.322344303131104,79.84031677246094,0.0
67,0.4304254375398159,-0.01408608504571016,32.561501121521,49.2307692527771,4.322344303131104,79.84031677246094,0.0
68,0.4316843211650848,-0.007691710628569081,32.56999969482422,49.89194126129151,4.322344303131104,79.84031677246094,0.0
69,0.4355372741818428,0.0001388817356200825,32.57575092315674,50.29304027557373,3.5683760941028604,75.96352043151856,0.0
70,0.438093201816082,0.004304974908882237,32.58000183105469,49.24297933578491,2.0024421215057373,67.91171264648438,0.010058102943003168
71,0.44438764825463295,0.009615229384507925,32.58700065612793,50.37484731674194,2.0024421215057373,67.91171264648438,0.018679334037005883
72,0.44904171749949456,0.01117412603925908,32.59000015258789,47.98046379089355,2.9230769872665405,64.2971170425415,0.0
73,0.45045320466160776,0.008615784929133894,32.59000015258789,49.883394432067874,3.2722833156585693,59.63289022445679,0.014727936685085286
74,0.4425183869898319,-0.0019055791828577347,32.59000015258789,50.05921897888184,3.2722833156585693,48.289737701416016,0.0
75,0.43622394278645515,-0.008659058564808175,32.59000015258789,49.64407825469971,3.2722833156585693,48.289737701416016,0.0
76,0.43538468033075334,-0.008285065728705323,32.59349956512451,50.053724098205564,3.2722833156585693,48.289737701416016,0.0
77,0.4371776431798935,-0.004333529161522123,32.60099868774414,49.97924289703369,4.473748588562012,45.27119369506836,0.0
78,0.44064913019537927,0.0015265032941897308,32.61000061035156,48.91697187423706,5.274725437164307,43.25883102416992,0.02298994958400724
79,0.4490417197346687,0.010269136773422298,32.618499183654784,49.48351612091064,5.274725437164307,43.25883102416992,0.036281014978885626
80,0.45182654187083243,0.010530990664847136,32.619998931884766,50.007936668396,5.030525207519531,42.130679035186766,0.0
81,0.4522461697459221,0.007657081657089235,32.62374973297119,49.826007175445554,4.786324977874756,41.10997009277344,0.00574748739600181
82,0.4525513485074043,0.004662547267798745,32.630001068115234,50.29975595474243,4.786324977874756,41.10997009277344,0.0
83,0.4488128274679184,-0.001525009361573374,32.63175077438355,49.175213718414305,4.786324977874756,41.10997009277344,0.008621231094002715
84,0.446943575143814,-0.003850027202861335,32.63999938964844,48.924298191070555,4.786324977874756,41.10997009277344,0.015805590339004978
85,0.4483168959617614,-0.0017602699081180149,32.63999938964844,50.260683345794675,5.04273521900177,43.36833019256592,0.0
86,0.44576097950339316,-0.00343698947690422,32.649501419067384,48.978632640838626,5.518925666809082,47.56242752075195,0.024426821433007694
87,0.4444257989525795,-0.00314620072313114,32.650001525878906,49.899877834320066,5.518925666809082,47.56242752075195,0.0
88,0.44339579790830613,-0.00283924117393322,32.650001525878906,50.35897445678711,4.9713065266609195,51.50921745300293,0.0
89,0.4425183832645416,-0.002822200168156935,32.658250141143796,50.76862020492554,4.200244426727295,65.00541687011719,0.0
90,0.4399243153631687,-0.004187027283478473,32.66599884033203,48.86691083908081,4.200244426727295,65.00541687011719,0.0
91,0.43885616287589074,-0.0034895199511083275,32.66999816894531,49.42002420425415,4.737484931945801,80.53531665802002,0.044363418407738164
92,0.45442060604691503,0.011948311643209253,32.6707483291626,48.69291849136353,4.737484931945801,90.97801208496094,0.05316425841301674
93,0.4733802318572998,0.026695058401673983,32.68000030517578,48.865689754486084,4.737484931945801,90.97801208496094,0.03879554066807029
94,0.4770424522459507,0.023553675459697786,32.68000030517578,50.443223571777345,5.023198986053467,90.97801208496094,0.03987319394946094
95,0.4691839307546616,0.009337688493542332,32.68000030517578,50.76800985336304,4.45970693230629,92.68521919250489,0.04256732929497954
96,0.46800134778022767,0.002276293714930891,32.68000030517578,49.82295475006104,3.2234432697296143,96.23095703125,0.09070253502577538
97,0.4688406065106392,-0.0015276607275154324,32.68974866867065,49.598901176452635,3.6758241951465607,96.23095703125,0.22469083089381453
98,0.4706335611641407,-0.0005138125663506725,32.69424953460693,47.32905988693237,4.615384578704834,96.23095703125,0.19128355942666528
99,0.47402874529361727,0.00370516450493592,32.701500511169435,51.53418807983398,5.560439574718475,93.44691677093506,0.16883243862539524
100,0.46952726542949674,-0.0006486320940893725,32.709999084472656,47.9230770111084,8.815629005432129,83.8574447631836,0.09483354035764925
101,0.46411023661494244,-0.005816433974541675,32.71274967193604,49.11294260025024,8.625152826309204,82.21112804412842,0.09698884896934025
102,0.4608676388859749,-0.007772570545785083,32.720001220703125,51.58058586120605,8.229548454284668,78.79185485839844,0.0071843594312667805
103,0.45983763635158537,-0.006993861577939198,32.720001220703125,50.20024423599243,8.229548454284668,78.27210025787353,0.023349168151617035
104,0.45869319662451746,-0.005408249603351527,32.720001220703125,49.40781440734863,8.229548454284668,76.4818344116211,0.020116205886006336
105,0.4595706008374691,-0.001826769985314026,32.720001220703125,50.175824356079104,8.229548454284668,76.4818344116211,0.02873743698000905
106,0.4628513351082802,0.00249864636571142,32.72899971008301,48.5378511428833,8.229548454284668,76.4818344116211,0.10399359874427312
107,0.465483570843935,0.00477902166894632,32.72999954223633,48.07387065887451,8.229548454284668,76.4818344116211,0.037358668074011774
108,0.4717398561537266,0.009361744730267628,32.72999954223633,52.91941394805908,8.229548454284668,76.4818344116211,0.06358157880604262
109,0.47608875706791876,0.01069576332811261,32.72999954223633,48.142246341705324,6.604395794868469,62.14791889190674,0.04131006672978399
110,0.47345652654767034,0.004732938791857985,32.72999954223633,48.98534812927246,5.274725437164307,50.420169830322266,0.023349167406558964
111,0.4678868994116783,-0.002702075309934995,32.73575077056885,50.98901100158692,6.032356548309326,58.51786785125732,0.031970398873090715
112,0.46418653056025505,-0.00676901841070498,32.7400016784668,49.465812015533444,7.057386875152588,68.41505432128906,0.007184359245002263
113,0.4606387495994568,-0.009024343569762958,32.7400016784668,49.4230770111084,7.057386875152588,68.41505432128906,0.04005280267447229
114,0.46113466918468476,-0.00568465801770794,32.7400016784668,50.625152587890625,8.200244045257568,66.2989013671875,0.05460112951695915
115,0.4713202305138111,0.006378097573406155,32.7400016784668,48.84432229995728,9.91452980041504,63.12467193603517,0.058552527055144264
116,0.47475356683135034,0.009067567973397628,32.7400016784668,49.397435665130615,7.264957308769226,77.79327716827393,0.05549917407333847
117,0.4686498612165451,0.0017676823223155176,32.737251091003415,49.5323564529419,5.5042736530303955,92.87981719970703,0.05298464950174088
118,0.4649494990706443,-0.0027957096630415825,32.73975162506103,49.862026596069335,4.429792529344558,97.24118785858154,0.026582129113376114
119,0.461134672164917,-0.007189280691090929,32.7400016784668,49.57387056350708,4.534798735380173,110.5434799194336,0.01149497479200362
120,0.4586931951344013,-0.00840642161201681,32.7400016784668,50.32173366546631,5.310134470462799,109.83277492523193,0.0
121,0.4578920923173427,-0.005969391280086662,32.74550075531006,48.99145250320434,5.421245574951172,106.00706481933594,0.0
122,0.46510208398103714,0.0035472206436679603,32.74400100708008,49.9444447517395,4.992674171924591,106.33646278381347,0.0
123,0.47948393076658247,0.016689654090441715,32.7400016784668,49.45177040100098,4.515262722969055,108.77830715179444,0.0
124,0.4820017084479332,0.015433061379007957,32.7400016784668,50.23626375198364,4.70573890209198,109.11218872070313,0.01149497479200362
125,0.4863506004214287,0.015047187148593322,32.7400016784668,50.29304037094116,5.372405529022217,108.6956558227539,0.012931846641004075
126,0.4939420774579048,0.01602161787450309,32.7400016784668,48.159951305389406,5.753357887268066,108.3130558013916,0.026222911663353426
127,0.4881435617804527,0.00394520044246745,32.7400016784668,49.62271032333374,5.311965847015381,106.8008996963501,0.018679334037005883
128,0.4777291275560856,-0.00837095119059081,32.74950008392334,50.53113584518432,4.632478833198547,108.4259765625,0.0
129,0.48093356266617776,-0.004329280906404129,32.75,50.100732517242434,4.44444465637207,112.04481506347656,0.0
130,0.4955061458051205,0.009159201657166651,32.75,48.29181909561157,4.44444465637207,112.04481506347656,0.033407270908355685
131,0.4927594833076,0.0054632244558888024,32.75,50.52686195373535,4.427961122989655,112.27040901184083,0.021553077921271306
132,0.48280281499028205,-0.0035906321734727937,32.75,48.719780349731444,4.224664211273193,115.052734375,0.0
133,0.47940764352679244,-0.006621590885333667,32.75,51.48229579925537,5.304029226303101,107.92457466125488,0.05729526374489067
134,0.4810098558664322,-0.005486588086932845,32.75074987411499,48.64346742630005,5.494505405426025,106.66666412353516,0.0
135,0.48081911206245415,-0.004094050888670552,32.7599983215332,50.12087926864624,5.494505405426025,106.66666412353516,0.0
136,0.47845393791794777,-0.003286850120639377,32.76474933624267,48.71428556442261,8.324786067008972,83.73773803710938,0.0
137,0.4758217230439186,-0.0038249778503085924,32.77000045776367,49.96214933395386,5.754578852653504,68.55042381286621,0.0
138,0.47475356608629227,-0.003894229093566488,32.77000045776367,50.05494499206543,5.230769395828247,83.78793678283691,0.004310615547001358
139,0.4804376356303692,0.002550418427199475,32.77000045776367,50.37301588058472,6.076312506198883,102.4081449508667,0.008621231094002715
140,0.4926068909466267,0.013515500933863172,32.77000045776367,48.69841270446777,5.439560389518737,108.53630256652832,0.0
141,0.491195410490036,0.00935979990754272,32.77474966049194,50.27960939407349,7.054945087432861,110.33535690307617,0.0
142,0.481276897341013,-0.0023189234860183,32.779998779296875,48.30036630630493,6.068376064300537,109.2986831665039,0.0
143,0.4810861565172672,-0.003511476481798983,32.779998779296875,50.470695877075194,5.970696020126343,104.30871963500977,0.0
144,0.48234504759311675,-0.0033870037237647447,32.779998779296875,50.0006103515625,5.388888823986053,99.76896820068359,0.0
145,0.48112429976463317,-0.0035650676087242974,32.779998779296875,48.29670372009277,5.284493350982666,97.23704833984374,0.0
146,0.4819254130125046,-0.00036578135454873274,32.78750038146973,50.96581192016602,13.25763111114502,95.37546043395994,0.07076593786478039
147,0.4789498597383499,-0.002325716899940695,32.79200057983398,50.203296947479245,14.481074333190918,95.23809814453124,0.0035921797156333903
148,0.47715689837932584,-0.003635846561519375,32.8055004119873,49.2142858505249,14.481074333190918,95.23809814453124,0.0
149,0.47463912069797515,-0.004936554183950595,32.813250827789304,50.18009777069092,14.45665454864502,91.04704284667967,0.0
150,0.472006894648075,-0.005851984815671981,32.81999969482422,49.40842514038086,11.738705825805663,82.57890777587889,0.0
151,0.4700613349676132,-0.005644420348107765,32.827251243591306,50.236874198913576,6.378510475158691,60.591329956054686,0.0
152,0.4720831908285617,-0.00166671470979049,32.831751537323,49.20695972442627,7.308913230895996,60.78803329467773,0.0
153,0.4750206030905247,0.0021288227849253862,32.84000015258789,50.09401693344116,8.400488436222076,83.8239107131958,0.02298994977027176
154,0.4801324486732483,0.007000160764437114,32.849248600006106,49.061660575866696,7.976190662384033,101.60248165130615,0.010058102943003168
155,0.49016541093587873,0.014660562970675478,32.853499221801755,50.71062259674072,7.169719123840332,112.08111953735352,0.04490224514156578
156,0.49932095408439636,0.01890695407055313,32.86000061035156,48.14346771240234,7.472527503967285,113.63636016845706,0.029994698986411078
157,0.5003509566187858,0.01393008003942664,32.86474981307983,48.46214895248413,7.472527503967285,113.63636016845706,0.008980449102818958
158,0.49523910954594613,0.00402243179560168,32.875,52.133699321746825,7.472527503967285,113.63636016845706,0.018320116400718674
159,0.4945142939686775,-0.00021971628484607252,32.88275060653687,47.99694766998291,6.7252748012542725,113.63636016845706,0.0
160,0.4906613364815712,-0.00555695433868091,32.88999938964844,50.067765617370604,3.8412698686122893,115.66558456420898,0.0
161,0.48432874083518984,-0.010347140755038656,32.900251388549805,50.67338171005249,5.675213772058487,82.14796524047851,0.06124666202813385
162,0.4801324501633643,-0.010706027573905838,32.91424913406372,48.9932843208313,5.372405529022217,83.96753196716308,0.05424191355705258
163,0.4781487539410591,-0.009054317278787437,32.92474918365478,49.0934063911438,5.012820506095887,97.67341003417968,0.0
164,0.4773476369678974,-0.00638732947409148,32.935499382019046,49.78876667022705,5.360195279121399,101.8817195892334,0.04741677138954397
165,0.4784920856356621,-0.0023246373952133075,32.94599990844726,50.917582511901855,5.9304029703140255,106.94834785461425,0.0
166,0.47502060085535047,-0.003691499191336275,32.95350017547607,50.538461685180664,5.644688630104065,112.0002212524414,0.0
167,0.4691076405346394,-0.00761700227158138,32.96399993896485,49.43956031799316,7.069596910476685,113.96207809448242,0.0
168,0.468039496243,-0.006506227795034593,32.97150096893311,49.86263780593872,8.308302927017213,115.48243007659912,0.012931846641004075
169,0.4672002300620079,-0.00539981666952366,32.98199996948242,47.42002487182617,5.836385726928711,113.42154693603516,0.050290515273809386
170,0.4681920900940895,-0.0022657317080301575,32.99275121688843,49.00183134078979,5.69108659029007,112.92552661895752,0.03304805252701041
171,0.4669331908226013,-0.0016530678301932677,33.00649890899658,50.30219793319702,5.957875430583954,113.53597640991211,0.0
172,0.46887875348329544,0.0011219190040719276,33.01374912261963,50.50488386154175,5.524420034885407,113.73001461029052,0.0
173,0.47101504653692244,0.0028752891143084924,33.024249744415286,49.62087879180908,6.648351728916168,112.53196582794189,0.0
174,0.4681157894432545,-0.00047955183981683407,33.03499984741211,50.83821754455566,9.205738592147828,111.75496253967285,0.0
175,0.46517839133739464,-0.0031644533039070152,33.040000915527344,48.50427350997925,6.1782660484313965,107.58480072021484,0.0
176,0.4646061643958091,-0.0032077088835648603,33.04924936294556,48.167277336120605,5.299145221710205,105.91350555419922,0.0
177,0.4625842958688736,-0.004420134966494476,33.05975131988525,50.183760738372804,5.186813163757324,105.38484954833984,0.0
178,0.46205022409558294,-0.00336202478792979,33.064500617980954,51.06043949127197,4.737484931945801,103.27022552490234,0.0
179,0.4602572679519653,-0.003418748738476965,33.07475070953369,49.59768009185791,4.962149143218994,101.21922798156739,0.0
180,0.4567857950925826,-0.005374696850776625,33.08550090789795,49.45726490020752,5.128205299377441,98.36065673828124,0.0
181,0.4540772780776024,-0.006096301553770852,33.09599914550781,49.0146520614624,6.30280830860138,76.971630859375,0.0
182,0.4541917234659195,-0.004124098579632073,33.103499221801755,50.05616626739502,7.313797330856323,94.05803031921387,0.0
183,0.4537339426577091,-0.0029114052857038978,33.113999938964845,49.50244188308716,6.993895053863525,102.20476837158203,0.0
184,0.45388654097914694,-0.0011804305765963055,33.124749946594235,50.2289379119873,5.999999952316284,105.35537185668946,0.0
185,0.4586169019341469,0.004118320258930859,33.130001068115234,48.79304037094116,5.982905864715576,106.66666412353516,0.0
186,0.4698706030845642,0.013586561428382948,33.136000061035155,50.012210083007815,5.5726494789123535,107.4234224319458,0.0
187,0.48570207953453065,0.024647123040631366,33.146500778198245,49.26129388809204,5.161172103881836,108.14241294860838,0.02963548153638836
188,0.5042420744895935,0.035087789269164164,33.157000350952146,49.975579833984376,4.395604610443115,108.7941970825195,0.013470673561096186
189,0.5305261388421059,0.04836064781993624,33.16774854660034,49.37057409286499,4.395604610443115,107.54176940917966,0.587680584192276
190,0.5434965044260025,0.04471074081957336,33.17499923706055,49.1385838508606,4.395604610443115,92.09516143798828,0.3135972749441862
191,0.5417798295617103,0.02717215497978026,33.188998794555665,49.372405242919925,27.99084199666977,68.0696668624878,0.1470997545868158
192,0.5380413293838501,0.011006460874341388,33.19650001525879,52.07264966964722,23.012820148468016,61.2851466178894,0.2119385931640863
193,0.5296868771314621,-0.00524023671605389,33.20699958801269,50.32051267623901,21.39194107055664,59.49429702758789,0.12375058624893423
194,0.5209128051996231,-0.015364529890939551,33.21450004577637,48.861416053771975,21.39194107055664,59.49429702758789,0.0
195,0.5120624482631684,-0.01968121011741455,33.224750423431395,48.69047603607178,21.39194107055664,59.49429702758789,0.0
196,0.5018768891692161,-0.022559988824650597,33.23575077056885,49.42979249954224,21.39194107055664,59.49429702758789,0.008621231094002715
197,0.4948194831609726,-0.021133871376514395,33.2524995803833,50.18986539840698,16.804639911651613,57.33985786437988,0.04795559775084252
198,0.4925305999815464,-0.015291454899124748,33.26699981689453,49.67155065536499,8.667887878417968,56.94781684875488,0.0
199,0.49413281455636027,-0.007307615142781243,33.274249744415286,49.843711853027344,5.616605758666992,57.36137771606445,0.05891174618154758
200,0.4971846669912338,-6.74067439376757e-05,33.28449974060059,49.49633703231812,5.616605758666992,57.36137771606445,0.08764918223023407
201,0.5040513411164284,0.007997808884829222,33.29525003433228,49.85164823532104,5.5708181977272035,57.76492614746094,0.0757949879392981
202,0.5030594900250435,0.005636663117911622,33.30274982452393,48.8846155166626,4.8693528175354,59.90558624267578,0.09662963002920145
203,0.49527725875377654,-0.003275445087638175,33.313250827789304,51.71733779907227,5.8608057498931885,75.67578201293945,0.07866873424500219
204,0.49298837333917617,-0.005611741775646755,33.32400054931641,48.00183153152466,6.520146369934082,81.02633666992188,0.037897495552897426
205,0.4962309651076794,-0.0021804132935357877,33.33775053024292,48.866300392150876,6.483516335487366,83.02332954406738,0.0
206,0.500427246838808,0.00245909992954689,33.34824876785278,50.38339424133301,6.057997477054596,95.80964012145996,0.07417850904166692
207,0.5021439239382743,0.004778499191161188,33.35249900817871,50.31868133544922,4.865079510211944,104.48282165527344,0.09591119438409798
208,0.5009994700551033,0.003099806033424045,33.36000061035156,47.69169721603394,5.982905864715576,106.57193756103516,0.07974638752639288
209,0.5011902183294297,0.0018000976027905825,33.369998931884766,53.49328451156616,5.982905864715576,106.57193756103516,0.08675113618373866
210,0.4998168833553791,-0.0009014786402303631,33.37750053405762,46.283272171020506,5.982905864715576,106.57193756103516,0.02406760342419145
211,0.4960020795464515,-0.004464694095076943,33.380001068115234,50.00427331924438,8.032966792583466,106.57193756103516,0.0
212,0.4984817013144493,-0.0011627325686276425,33.380001068115234,50.103785037994385,3.6874237060546884,107.23860931396484,0.0
213,0.49508652091026306,-0.0036879803636110826,33.386000061035155,49.454823112487794,3.9438339471817017,112.04406242370605,0.0
214,0.49081393107771876,-0.0063573074061423025,33.39375019073486,50.04761896133423,4.523809492588043,114.95658798217774,0.004310615547001358
215,0.48749503344297407,-0.0072182684903963875,33.40400085449219,49.60989027023315,5.101343154907227,116.83444137573242,0.00574748739600181
216,0.4908139280974865,-0.0021300808668456577,33.40999984741211,49.727716541290285,5.318070852756501,121.42620334625244,0.02298994958400724
217,0.5018768832087517,0.00919009379576885,33.41524896621704,49.62698411941528,3.891330897808075,119.86167659759522,0.02658212948590515
218,0.5075227975845337,0.013147913827560784,33.41999816894531,49.818070793151854,4.709401768445969,105.38414001464844,0.07579498868435615
219,0.5055009663105011,0.008251980633940493,33.41999816894531,49.244200229644775,5.860805988311768,89.88764190673828,0.11620700880885118
220,0.5017624408006668,0.0015832226777319827,33.41999816894531,50.35470066070557,5.860805988311768,89.88764190673828,0.021553077921271306
221,0.499092074483633,-0.0034159254864789025,33.42774982452393,47.83638544082642,5.860805988311768,89.88764190673828,0.0
222,0.4982528105378151,-0.00477235338184978,33.43000030517578,50.17582454681396,5.9010990262031555,88.88290939331054,0.0
223,0.4936368927359581,-0.007494001626037012,33.438748836517334,50.56776533126831,6.398046493530273,79.84031677246094,0.0
224,0.49146244674921036,-0.00660615382366809,33.439998626708984,49.923076915740964,5.504884040355682,76.60880050659179,0.0
225,0.4981383681297302,0.0019126296196191176,33.439998626708984,48.27899856567383,4.517704486846924,73.03712463378906,0.0
226,0.5151524439454078,0.01784224142320449,33.44424953460693,50.8461537361145,4.517704486846924,73.03712463378906,0.01149497479200362
227,0.5389950260519981,0.035749518219381514,33.45000076293945,49.45177011489868,4.517704486846924,73.03712463378906,0.01724246237426995
228,0.5376598358154296,0.02545614698901768,33.45000076293945,49.47069606781006,4.517704486846924,73.03712463378906,0.0
229,0.529305399954319,0.008886124740820333,33.456249713897705,49.63614168167114,4.517704486846924,73.03712463378906,0.0
230,0.5376979902386665,0.009619529533665593,33.459999084472656,49.99694747924805,4.517704486846924,73.03712463378906,0.01149497479200362
231,0.5397961348295212,0.004740229524031715,33.459999084472656,49.65934066772461,4.517704486846924,70.35099487304687,0.012931846827268589
232,0.5248420715332032,-0.01090320412768046,33.46450004577637,49.6385835647583,4.517704486846924,70.05253601074219,0.012931846641004075
233,0.5127491131424904,-0.01848846194334325,33.470001220703125,50.03968257904053,4.517704486846924,70.05253601074219,0.0
234,0.5063783660531044,-0.02017130926251407,33.470001220703125,49.59951171875,4.081196576356888,64.15923976898193,0.010058102943003168
235,0.5061494797468186,-0.014985686959698749,33.470001220703125,49.68315019607544,3.1135531663894653,49.613139152526855,0.0
236,0.5093157753348351,-0.005442307452904011,33.47400054931641,50.88949995040893,4.173382276296616,53.64665069580078,0.02119386009871958
237,0.5060731828212738,-0.0036952759197446923,33.47999954223633,50.410256671905515,5.230769395828247,62.21533641815186,0.18445842247456307
238,0.49783318266272547,-0.008747279131784986,33.48525066375733,49.39743576049805,5.714285850524902,71.81328582763672,0.18733216673135752
239,0.4884487397968769,-0.01489413394592697,33.4900016784668,48.68376064300537,5.714285850524902,71.81328582763672,0.009878493845462787
