sec,SCL,SCR,TEMP,BVP,PVA,HR,MOTION
0,8.024880266189578,0.0010000000474974,31.017500400543224,51.29914560317993,0.0,30.0,0.03664023205637934
1,8.020035719871524,0.22577500003681047,31.02800064086914,50.642246627807616,2.2991452455520642,41.58201942443847,0.01149497479200364
2,8.00977363586426,0.45563771091401584,31.0300006866455,48.364468669891366,11.346764063835174,70.1782096862793,0.01149497479200364
3,7.968306517601013,-0.05636758368491429,31.0300006866455,49.18803415298462,13.552503347396879,77.94608612060546,0.0
4,7.928785073757173,-0.07615724783390761,31.0300006866455,49.26129436492921,11.343101501464849,80.59985084533693,0.00287374369800091
5,7.880947291851042,-0.09475612379610535,31.0300006866455,51.051282310485846,10.644688892364494,81.31328258514404,0.02298994958400728
6,7.838831734657289,-0.104653431288898,31.02525057792665,51.63858366012575,16.796703338623047,81.48161201477048,0.00862123109400273
7,7.810182523727415,-0.09437241330742836,31.014750337600702,49.62759456634522,21.126984500884983,81.5217361450195,0.00287374369800091
8,7.78244881629944,-0.08350615128874779,31.0100002288818,53.141635704040525,24.074480819702124,81.95635299682615,0.0
9,7.7480772733688354,-0.08152455911040306,31.007250165939304,47.07814369201661,27.028082370758067,82.24251632690427,0.0
10,7.719084751605985,-0.0762500122189522,31.0100002288818,49.37301578521729,28.691697597503644,82.03343620300289,0.00574748739600182
11,7.693601822853088,-0.07100096885114908,31.008500194549534,51.77045145034791,28.354700756073022,82.22842292785641,0.0
12,7.696920704841615,-0.04091565732232993,31.0,45.77350425720215,30.23199043273926,82.33842010498044,0.0
13,7.773903560638428,0.04875879159662873,31.0,50.45054931640625,30.94383344650266,82.34295463562012,0.0
14,7.800645494461056,0.06923936046659947,31.006250143051126,50.321733856201185,29.356532382965078,81.87229251861572,0.025863693282008188
15,7.758072161674501,0.01681547692423919,31.0100002288818,48.416361331939704,27.979242563247716,81.67435741424559,0.0
16,7.708632123470305,-0.0379777516471222,31.0100002288818,51.83272285461426,27.27594652175906,79.21002502441405,0.0
17,7.667126977443696,-0.07913368865847588,31.0100002288818,50.749694728851324,26.81562919616697,77.53051300048828,0.0
18,7.629093337059018,-0.0996793042868376,31.0100002288818,47.27472543716431,28.180708789825463,78.5628505706787,0.0
19,7.597773718833928,-0.09429357070475816,31.0100002288818,51.564102458953855,30.268620967864983,78.2810342788696,0.0
20,7.57126066684723,-0.08130362387746573,31.013250303268414,50.981074333190925,30.531135559082024,79.07861137390137,0.0
21,7.549020385742186,-0.06909675281494856,31.013250303268414,46.67521343231202,31.736263275146477,77.62142181396482,0.0
22,7.524338483810425,-0.06342460680752993,31.01775040626527,51.44139175415039,32.902929019927946,76.9727952957153,0.0
23,7.498397755622866,-0.06240850407630205,31.0200004577637,51.12881593704225,32.322344779968226,76.69449386596679,0.026402520388364808
24,7.469557893276215,-0.06532519487664104,31.0200004577637,46.13797302246095,33.14285812377928,77.80261840820314,0.0
25,7.450140333175659,-0.059719489328563226,31.0200004577637,51.17765541076661,32.642856264114364,77.97738494873046,0.02011620588600637
26,7.434995627403265,-0.05119518348947168,31.0200004577637,50.57203931808472,29.9633693695068,79.62105293273927,0.021553077735006827
27,7.421491146087649,-0.04314390709623695,31.0200004577637,51.67948741912842,29.2112326622009,83.20935249328616,0.02011620588600637
28,7.414586353302004,-0.0310688590630889,31.028250646591186,46.307081413269046,28.400487899780295,86.51751441955568,0.01724246218800546
29,7.414738905429843,-0.017504398105666043,31.0300006866455,47.97680082321166,28.289376640319865,85.29853630065915,0.019756988435983676
30,7.398029983043671,-0.023643731698393823,31.0300006866455,52.70329694747926,29.711843538284302,82.96323490142821,0.06950867678970102
31,7.454908907413484,0.03902575780884941,31.0300006866455,46.751526546478274,28.33577527999875,83.46986942291261,0.00287374369800091
32,7.692838823795318,0.2490145061165095,31.0300006866455,48.881562900543216,27.378510427474946,85.52478313446048,0.0
33,7.831736207008362,0.3136141143739224,31.0300006866455,50.88095235824585,24.7924299240112,83.82298564910887,0.00197569876909256
34,7.755478072166443,0.16008807290345434,31.0300006866455,51.20818071365356,21.236873531341537,83.01382789611817,0.04023241158574821
35,7.64172034263611,-0.01122283060394693,31.0300006866455,52.33028087615968,23.72954874038694,82.52885608673095,0.0
36,7.582590723037723,-0.10867417231202126,31.0300006866455,47.571428394317635,23.349816560745246,82.15951137542726,0.0
37,7.626422941684725,-0.0706043264362961,31.0300006866455,50.1092797279358,23.0402932167053,81.99547576904294,0.0
38,7.671971762180331,0.0005653232219628752,31.0300006866455,50.95054950714111,26.10866909027099,80.8246362686157,0.0
39,7.621883285045625,-0.01915705908322705,31.0300006866455,47.82234430313112,27.6117220878601,78.31545333862303,0.0
40,7.546082925796509,-0.0723148137331009,31.0300006866455,49.510989379882815,27.31135606765749,77.3129997253418,0.0
41,7.489051508903505,-0.11162909157574183,31.0300006866455,52.674603366851805,28.949939155578647,76.83579959869385,0.01149497479200364
42,7.446783351898195,-0.12781580798327924,31.029250669479364,48.324175739288336,30.953601694107043,76.66140098571778,0.012931846641004094
43,7.403294503688814,-0.12471124511212113,31.0200004577637,48.19291830062867,31.40415115356446,76.59901123046872,0.0
44,7.375179231166838,-0.10005104579031468,31.028250646591186,54.47008543014526,30.980463600158735,79.0123622894287,0.0
45,7.353625631332396,-0.07783245462924243,31.0300006866455,48.373626518249516,34.9084248542786,81.02855491638181,0.0
46,7.331499695777896,-0.06555191334336996,31.0300006866455,46.76068372726441,35.504272460937486,81.5771560668945,0.0
47,7.292359721660612,-0.07363499160856009,31.0300006866455,53.44810733795166,36.155065345764136,79.54350738525389,0.02011620588600637
48,7.269966781139369,-0.06682237768545747,31.0300006866455,47.02319869995118,38.74847335815428,80.55983276367189,0.007184359245002275
49,7.25249483585358,-0.05927444249391557,31.0300006866455,47.55128202438355,35.6862020492554,81.13893661499027,0.03448492474853995
50,7.236091136932375,-0.051770249474793674,31.032250738143905,53.259462642669675,36.14163503646849,81.02137374877933,0.031072353571653378
51,7.2148426413536075,-0.04947828445583583,31.040000915527298,48.35653276443482,37.55250139236453,79.45580043792725,0.0
52,7.197599649429319,-0.04539288971573114,31.040000915527298,49.05860795974732,32.86446762084964,80.66794509887693,0.0
53,7.176961648464203,-0.047618531156331294,31.040000915527298,52.93040323257446,31.4102563858032,81.61877822875974,0.0
54,7.158726775646213,-0.04698082525283099,31.040000915527298,46.782051467895506,33.14102525711062,81.5771560668945,0.0
55,7.145947134494783,-0.04133244156837464,31.040000915527298,49.71184406280517,32.44444389343265,79.77268753051756,0.0
56,7.121074533462523,-0.04798988457769156,31.040000915527298,51.97496957778932,29.71916980743407,77.75605087280273,0.0
57,7.095439052581783,-0.05407813014462591,31.040000915527298,48.69658145904541,29.54212517738341,78.29814052581786,0.0
58,7.072168648242953,-0.05667672678828238,31.040000915527298,49.4786322593689,30.27228326797485,78.46793403625487,0.0
59,7.037110495567321,-0.0691861235536635,31.040000915527298,52.48412723541261,30.61782636642455,77.75317306518555,0.0
60,7.023377203941342,-0.05810936521738767,31.040000915527298,48.17582416534424,31.782661724090577,78.44850807189941,0.0
61,7.015480518341062,-0.042996959760785096,31.04350032806392,48.700244235992436,33.06532287597653,80.33322200775149,0.0
62,7.009376895427702,-0.03030105684883893,31.040000915527298,50.998168373107916,31.19169750213622,81.10867919921876,0.0
63,6.981681227684024,-0.04029683424159884,31.040000915527298,45.77411470413209,31.173381710052478,81.36424198150635,0.0
64,6.950514280796051,-0.053772058431059123,31.041750621795607,51.478632450103774,29.24786362648007,81.46087150573727,0.0
65,6.917554140090942,-0.06786091364920141,31.04674978256221,53.27411479949952,26.235042428970313,81.77788734436032,0.06950867567211394
66,6.900158691406254,-0.0629970439709723,31.04100074768062,48.54029293060303,19.501220655441266,82.09634056091306,0.15105115082114923
67,6.888523542881015,-0.050468853861093524,31.040000915527298,46.30708184242249,26.763125276565585,79.77325839996334,0.3012042507529257
68,6.915952003002168,-0.0030162847731844624,31.04699974060054,51.24664239883424,29.1819286346436,79.2602386474609,0.2275645714253185
69,7.116153430938721,0.19193068416789175,31.0499992370605,52.64224672317506,25.74175853729247,78.34814586639403,0.3083886180073022
70,7.682042944431305,0.6680334843695165,31.0499992370605,47.458486270904544,29.640415287017824,82.28559379577635,0.12824081107974045
71,8.281998586654662,0.9939724430441856,31.052249288558926,47.78998775482178,31.865690612792992,85.81235733032226,0.08621231094002721
72,8.481170082092287,0.9223286852240562,31.0599994659424,48.52380943298341,26.148351621627807,87.02593307495115,0.144585227034986
73,8.356196737289428,0.5085701011121273,31.0599994659424,54.541514015197755,24.213675069808954,87.55484580993652,0.08262013103812933
74,8.149281263351442,0.04976752488873894,31.061249494552623,47.64285726547242,21.9047622680664,87.4635543823242,0.1066877340897919
75,7.980437660217286,-0.2550933189690114,31.0699996948242,51.72588529586792,22.15873031616212,89.00781402587889,0.26330676078796367
76,7.8703420758247375,-0.34569849967956545,31.0699996948242,51.16788792610169,22.5396823883057,90.16652297973633,0.5368512354791164
77,7.780846571922302,-0.3148754723370075,31.072749757766722,43.28266186714173,22.5396823883057,89.2193298339844,0.24121485855430352
78,7.695585489273073,-0.2598085217177868,31.0799999237061,72.55006096363067,24.785103893280063,87.77277030944828,1.2639083968475464
79,7.771538424491882,-0.0782859392173122,31.0799999237061,43.37118432559074,37.5091590881348,79.5755996704102,0.8804431945085526
80,7.835818052291872,0.03342336704954506,31.0799999237061,54.67643465488218,37.5091590881348,77.5013107299805,0.30515566021203994
81,7.792176556587219,0.01123359249322673,31.0799999237061,46.24481057617813,37.5091590881348,68.93390512466429,0.11782349087297923
82,7.857295441627502,0.07814983176067472,31.0799999237061,21.71001209877431,55.07265157699588,57.02328195571897,0.18212350122630577
83,7.953352463245393,0.1373286133632064,31.079749917984053,62.30097702778876,91.56898956298832,53.89279785156251,0.13704164866358032
84,7.905667293071747,0.04577830434955104,31.071249723434438,45.05006128670648,98.52258777618411,56.547524261474585,0.13057572934776554
85,7.826357281208038,-0.04118163613602519,31.0799999237061,50.78510385272093,99.9755783081055,75.80174255371091,0.09375588782131673
86,7.821893954277037,-0.04769526440650226,31.0799999237061,58.80525033529848,99.9755783081055,89.6849611282349,0.059989400021731865
87,7.790154743194579,-0.07847208213061097,31.07724986076358,41.65506695569493,99.9755783081055,97.16798229217528,0.0059270963072776805
88,7.713553297519683,-0.12219278514385226,31.0699996948242,55.03418783578091,99.9755783081055,98.8467864990234,0.01436871849000455
89,7.645649528503418,-0.13771005012094978,31.0699996948242,52.33516511917115,99.9755783081055,100.37912063598651,0.04705755282193427
90,7.610057342052464,-0.12734649870544668,31.077749872207676,38.487179446220395,80.69719095230103,100.18011398315437,0.05945057272911074
91,7.5442518234252915,-0.14458740428090106,31.074749803543103,56.281440359773114,69.6831503868103,89.35390796661372,0.08657152689993385
92,7.519608139991762,-0.11126502575352784,31.078999900817912,36.885226077353586,91.0622711181641,67.4157333374023,0.08226091396063569
93,7.567331445217133,-0.022188586033735185,31.0799999237061,51.496947527537124,91.79548187255861,54.906800842285136,0.09842571970075359
94,7.557603740692139,-0.01017209465207996,31.0799999237061,78.25946278572083,77.23076896667482,49.85095834732052,0.1663179121911525
95,7.560579252243042,0.007185218059748863,31.0799999237061,19.308302809903395,62.5641021728516,50.1882057189941,0.1894874714314938
96,7.633060717582703,0.07656852481886744,31.0799999237061,41.945665377751,62.5641021728516,50.1882057189941,0.09339666794985527
97,7.715536987781524,0.1286871002987027,31.08875012397768,87.69474964141845,66.77838554382326,53.79174909591677,0.031072354130446928
98,7.848025453090668,0.21483624950051308,31.0900001525879,54.859584826743244,66.8864440917969,53.88414764404299,0.08531426340341562
99,7.988219845294952,0.28187592513859283,31.090500164031994,40.53113572802395,66.8864440917969,56.619873809814464,0.14907545242458584
100,7.934011328220367,0.14373351745307447,31.100000381469705,25.0873017931357,66.8864440917969,66.0429306030273,0.08262013047933589
101,7.835665476322174,-0.012044324676389804,31.108000564575224,96.63736228942871,66.8864440917969,66.0429306030273,0.00574748739600182
102,7.723891401290894,-0.14532967321574683,31.118500804901128,52.49267373085022,66.8864440917969,66.0429306030273,0.0
103,7.6045640349388135,-0.2405212264508009,31.1200008392334,30.014652049960567,66.8864440917969,66.0429306030273,0.0
104,7.5484481811523425,-0.22346423976123336,31.123500251770018,43.94322348018177,55.290599155426,66.67283744812008,0.025504475645720975
105,7.571527755260469,-0.11649829540401695,31.1299991607666,51.27533547407948,33.772891998291,74.35596771240239,0.0017960898578166975
106,7.621921420097349,-0.010409933943992655,31.1299991607666,57.51526255081408,33.772891998291,72.7272720336914,0.054960347153246415
107,7.623599874973296,0.022077818051911894,31.138499355316128,60.93650799472816,33.772891998291,72.7272720336914,0.00574748739600182
108,7.607539606094363,0.014529076099279333,31.1399993896484,61.924908227613194,33.772891998291,72.0574155807495,0.015805590339005006
109,7.584650766849521,-0.013737875892547869,31.14649953842163,63.42429828643799,33.772891998291,63.7958526611328,0.03197039943188431
110,7.574083781242372,-0.029019565833732486,31.149999618530295,38.242979312967506,49.997557353973384,61.966278743743885,0.06376118734478957
111,7.5529114365577685,-0.04305565105751158,31.149999618530295,31.984127020835878,92.7716751098633,57.142856597900405,0.3155729752033949
112,7.510834085941316,-0.06592634236440062,31.149999618530295,49.13858342170716,65.4304026603699,49.379474544525124,0.06430001426488155
113,7.487067842483522,-0.06563903745263815,31.158749818801873,62.603174781799325,45.28327150344849,46.552535820007314,0.018679334037005915
114,7.611888492107392,0.07248912189679688,31.1599998474121,20.548229554202408,32.7228317260742,44.101432800293,0.07723186071962108
115,7.958159112930298,0.3768633071333169,31.1599998474121,60.669719436764716,32.7228317260742,44.101432800293,0.10830421429127454
116,8.155537605285646,0.4710569724440575,31.16124987602232,47.622710657119754,32.7228317260742,44.101432800293,0.16434221677482136
117,8.307748651504516,0.483944883197546,31.1700000762939,55.253357315063475,36.71550559997557,44.28683662414552,0.1348863426595926
118,8.528702664375306,0.5204171985387803,31.16124987602232,51.31440786723979,48.6935272216797,46.650027751922586,0.07112515475600945
119,8.810617375373841,0.5737191900610925,31.1599998474121,45.695359647460286,48.6935272216797,51.4138832092285,0.12410980369895697
120,8.940626215934753,0.47893746197223663,31.16349992752073,42.27106233332306,48.6935272216797,51.4138832092285,0.26061262376606453
121,8.819429659843445,0.1958212904632092,31.165999984741177,73.5146520614624,49.45360050201417,51.51549863815306,0.2685154214501382
122,8.639370369911195,-0.08326759781921284,31.1599998474121,36.794871878623965,79.0964584350586,55.4785003662109,0.19505534842610364
123,8.598513793945312,-0.160825514420867,31.1599998474121,47.55433435440064,79.0964584350586,55.4785003662109,0.01544637251645328
124,8.60385446548462,-0.14193297550082212,31.1599998474121,47.63553104400635,57.113551616668744,59.57697458267214,0.12626510951668016
125,8.498718190193177,-0.17693337388336666,31.156499767303465,50.92857141494751,30.0244188308716,70.7904510498047,0.0
126,8.376110124588013,-0.20849702768027786,31.149999618530295,51.770451641082765,27.985957813262917,76.61943168640134,0.0
127,8.28867461681366,-0.2166645217686892,31.142249441146827,49.634309959411624,29.190476608276395,79.8524301528931,0.03161118030548096
128,8.24522376060486,-0.19274439401924606,31.1399993896484,55.65811992883683,30.265567302703865,81.11783695220944,0.5093710593879223
129,8.255676388740541,-0.107835893786978,31.13099918365478,44.27899894714356,29.7435894012451,81.4663925170898,0.049572079256176974
130,8.459196734428406,0.1369526020833291,31.1299991607666,45.01831502914429,39.97435941696164,81.69176330566403,0.00933966711163521
131,8.58985412120819,0.24516981728374954,31.1299991607666,49.39499397277833,35.5170946598053,80.06942272186276,0.01867933422327043
132,8.503029012680056,0.1116366121452302,31.1299991607666,48.79792418479919,27.32844982147219,77.54958076477052,0.0827997390180826
133,8.36226236820221,-0.0620466852356912,31.1299991607666,50.050671386718754,25.928571653366106,76.97840728759765,0.05675643682479853
134,8.24800865650177,-0.18914078362286096,31.12475004196167,60.263125801086424,24.6642246246338,76.5794525146484,0.06106705274432896
135,8.161946487426757,-0.24473016262054442,31.1200008392334,42.329670190811164,24.6642246246338,76.5794525146484,0.13560477998107678
136,8.087176156044006,-0.2339392185211182,31.116250753402728,48.520146417617795,24.6642246246338,76.5794525146484,0.2257684845477342
137,8.02610092163086,-0.1943420916795731,31.1100006103516,47.0341881275177,26.58730154037476,74.433479309082,0.10668773576617245
138,7.985358762741088,-0.15024740360677244,31.1100006103516,52.06593418121339,37.4847373962402,62.2729644775391,0.0
139,7.968077647686002,-0.10248874388635154,31.1100006103516,51.78449335098268,32.75091490745541,55.385250186920146,0.028737436607480064
140,8.028084683418275,-0.00010826903162524278,31.1100006103516,35.6092795610428,24.7863254547119,53.88414764404299,0.23403050042688842
141,8.140163898468018,0.118588493205607,31.103750467300415,58.70696010589601,37.03113570213319,55.89183797836303,0.10040142089128501
142,8.12902467250824,0.08918999051675201,31.100000381469705,48.31440806388856,51.868133544921896,63.35797119140629,0.056756437197327606
143,8.12822346687317,0.06506717912852764,31.100000381469705,55.60500583648682,51.868133544921896,63.35797119140629,0.1339882997795941
144,8.201239132881168,0.0990233978256583,31.100000381469705,45.04883999824524,51.868133544921896,63.35797119140629,0.03735866844654086
145,8.196737527847294,0.05171372434124351,31.094250249862665,52.45909652709961,42.30403079986576,63.35797119140629,0.07561538089066747
146,8.332392334938051,0.15788580346852543,31.0900001525879,48.22588529586793,33.6507949829102,63.35797119140629,0.09680923912674187
147,8.64413893222809,0.3982891485095024,31.0900001525879,49.74358987808229,33.6507949829102,63.35797119140629,0.02622291184961798
148,8.667790770530702,0.3076992329210043,31.08875012397768,49.92979230880738,29.684982585906994,61.740684509277386,0.02819861005991699
149,8.484412717819215,0.04221571367525035,31.0799999237061,51.79426088333131,27.81440715789797,73.33155517578123,0.10632851496338849
150,8.325640153884887,-0.15500522013753656,31.074749803543103,53.73931617736817,28.4249076843262,74.9531555175781,0.1382989136502147
151,8.224089765548708,-0.26280226744711394,31.0699996948242,50.08547019958496,25.778388214111335,72.54794540405274,0.07256202679127452
152,8.134784960746767,-0.2869159445166588,31.0699996948242,48.02319884300232,26.42490806579591,77.49921798706058,0.0693290662020445
153,8.072412824630735,-0.2310589116066694,31.062749528884893,42.60256404876709,24.468864440918,78.6885223388672,0.28090844135731446
154,8.025414180755618,-0.17204155549407005,31.0599994659424,29.993895281152806,24.468864440918,78.6885223388672,0.9627041205763807
155,7.9663228511810305,-0.15235971920192243,31.054749345779403,76.04456653594971,24.328449583053633,79.50403861999513,1.2671413213014593
156,7.862788796424866,-0.18246946893632415,31.0499992370605,14.294871766539291,54.427351760864234,77.6783935546875,1.1107019066810602
157,8.154469430446625,0.1522753775701859,31.0499992370605,46.39560451507568,61.9780235290527,77.0712890625,0.9100786939263343
158,8.645970058441163,0.5772474251687527,31.0499992370605,81.33516478538513,49.35775203704835,75.73250312805175,0.9896454766392697
159,8.69098484516144,0.49080570638179777,31.048499488830522,47.90598294162192,68.82356662750246,75.14809894561765,1.3501206740736948
160,8.574900031089784,0.2475247893482447,31.040000915527298,34.418192625045776,76.459098815918,74.9531555175781,0.23097714744508266
161,8.463240456581115,0.012382505508139694,31.037250852584805,49.01282051242888,76.459098815918,76.6756164550781,0.27444251626729965
162,8.38969087600708,-0.15203922316432006,31.02650060653687,61.8833944797516,78.71550750732425,81.26768188476562,0.2913257628679275
163,8.344905042648316,-0.1822750017046928,31.019250440597556,58.38644714355469,82.1001205444336,77.8210144042969,0.09393549542874094
164,8.2784126996994,-0.17068911083042632,31.0100002288818,40.95909628868104,82.1001205444336,77.8210144042969,0.21445311829447727
165,8.196050858497621,-0.17415424808859822,31.002000045776363,51.56227149963379,61.986568832397424,79.71851463317871,0.053164256736636106
166,8.141079354286195,-0.1586275909096002,31.0,49.955433177947995,47.92673950195312,78.54695892333986,0.0
167,8.11895356178284,-0.1221405962482095,30.99049978256229,49.64102611541748,27.864468097686814,78.55571155548094,0.0
168,8.114185190200809,-0.07633404405787586,30.98274960517882,50.606837654113775,25.69474964141845,81.05545349121093,0.0
169,8.101252555847168,-0.04878737842664123,30.978749513626077,47.014041137695315,27.741147994995153,81.60351676940914,0.013829891383647921
170,8.073404574394223,-0.04693751316517593,30.9699993133545,48.86019506454468,30.202076292037937,81.5771560668945,0.06843102220445871
171,8.030182862281801,-0.06792971268296243,30.9699993133545,51.54883961677551,30.11111130714417,81.5771560668945,0.16847322024404993
172,8.006378173828125,-0.0692709932103753,30.9699993133545,73.56837598094717,37.53052449226378,81.85595798492432,0.3033595621585845
173,8.026558780670168,-0.028831045143306255,30.9699993133545,33.38034158055671,42.1733818054199,82.0232391357422,0.3999891895800827
174,8.027016496658328,-0.012796619487926347,30.9699993133545,35.7869354724884,42.1733818054199,82.0232391357422,0.12393019553273918
175,7.981086146831511,-0.042136669065803295,30.965249204635644,52.94871768951416,56.71184301376345,82.64656276702883,0.28432101290673006
176,7.928937661647798,-0.07461282638832928,30.959999084472702,43.615995152201506,38.642246246337905,84.6196243286133,0.3536500744521619
177,7.89979246854782,-0.08321426827460528,30.951000595092818,54.81990213394166,45.81196708679201,85.01050415039063,0.08962487969547504
178,7.874843621253966,-0.08297226466238498,30.94975075721745,53.501831436157225,29.131867980956997,81.06595993041996,0.027300564944744133
179,7.821512484550475,-0.09983938615769157,30.9400005340576,33.33638571593911,27.9853477478027,81.1359024047852,0.3626305237412452
180,7.799157619476316,-0.08220500480383634,30.9400005340576,77.3461540222168,27.943223190307588,81.15240478515628,0.46141547337174443
181,7.771729147434238,-0.07641070540994406,30.9400005340576,39.048840296268466,27.70207538604739,81.36697998046876,0.42441600859165163
182,7.731902492046355,-0.08390360772609712,30.9400005340576,49.42857131958009,30.207571029663097,81.4663925170898,0.2674377704039214
183,7.7140492320060705,-0.06782100154086947,30.9400005340576,42.965812075324365,31.189255523681663,79.35751190185545,0.0441838081926107
184,7.723662459850308,-0.03227473488077522,30.939250516891462,48.684981615003196,36.09584808349613,69.29849624633792,0.21948216799646608
185,7.7239677667617785,-0.015884775249287483,30.9300003051758,55.06654472351075,37.7289390563965,66.5926742553711,0.1456628803163765
186,7.695585548877716,-0.03008726192638278,30.9300003051758,49.32661819458008,37.7289390563965,66.5926742553711,0.17475953251123405
187,7.642292511463164,-0.06518785562366249,30.9300003051758,41.11050071716309,37.7289390563965,66.5926742553711,0.2658212862908839
188,7.60990483760834,-0.07854607589542865,30.9300003051758,55.86935300827027,60.84004878997804,53.62224292755129,0.11494974605739101
189,7.5768303275108355,-0.08635195903480053,30.9300003051758,54.01526231765747,58.08913478851323,55.8530347824097,0.11423131003975866
190,7.55550546646118,-0.0757845113053918,30.9300003051758,46.17094020843507,44.03663072586062,51.84338893890382,0.08172208685427909
191,7.536584115028378,-0.06162764187902213,30.9300003051758,48.75579977035523,27.42673940658572,53.89402875900269,0.06412040665745737
192,7.520409297943116,-0.05063855927437544,30.921500110626187,52.21794872283937,25.281441116332992,67.07879772186277,0.07561537940055134
193,7.504692280292514,-0.04396253423765302,30.9200000762939,49.22527446746827,25.557998275756837,76.86145019531246,0.10129946433007728
194,7.462996327877045,-0.06414737245067954,30.9200000762939,40.65018329620362,25.5677661895752,82.69884490966798,0.29150536656379683
195,7.44830936193466,-0.05558367781341076,30.9200000762939,57.836385536193845,25.5677661895752,83.1600799560547,0.2927626367658378
196,7.438390719890599,-0.045318982470780624,30.9200000762939,51.34310169219971,24.152625179290744,85.11661853790288,0.24857881814241373
197,7.4194693326950105,-0.044278894178569325,30.925250196456897,38.69474974274636,22.36385846138002,83.92920722961425,0.6219858881086109
198,7.3999374508857745,-0.04335904344916342,30.9300003051758,71.64896221160889,20.512820720672643,73.23717956542967,0.45207578912377355
199,7.361445963382719,-0.061261861119419336,30.9300003051758,46.420024299621595,19.5848598480225,64.1025619506836,0.3060536883771419
200,7.357516646385193,-0.045663793827407075,30.9300003051758,38.71367535591126,21.87606873512272,63.60521459579468,0.13201260045170785
201,7.402378916740419,0.012384700588518175,30.9300003051758,53.7173384666443,50.1343116760254,57.47126388549809,0.11818270776420836
202,7.420537412166598,0.03289203220047056,30.921750116348232,51.21001234054565,46.8131866455078,55.9873754501343,0.04131006561219693
203,7.385059630870818,-0.0016847393140778752,30.9200000762939,52.0335774898529,31.99145269393923,59.073752593994165,0.30731096044182754
204,7.335123753547672,-0.047142888884991414,30.916750001907314,48.17643508911133,32.341880941390976,69.67794189453123,0.2877335816621779
205,7.302278220653534,-0.07277884799987079,30.9099998474121,46.899267292022714,32.96153907775882,76.05463409423828,0.19541456513106797
206,7.285111486911771,-0.072202486731112,30.905499744415287,53.54090347290039,32.925518417358376,80.6072690963745,0.06950867623090745
207,7.380787050724029,0.04316101321019234,30.908249807357784,45.6043954372406,35.1404151916504,84.56599559783936,0.0
208,7.579882192611694,0.2262628354132176,30.90099964141848,51.75946311950683,36.827228546142564,86.40270481109619,0.0
209,7.625164067745208,0.21904604993760596,30.899999618530295,45.533577632904056,39.4139175415039,87.2727279663086,0.00574748739600182
210,7.543565177917481,0.08362682373262943,30.899999618530295,46.44993896484375,39.52625074386599,82.39622592926023,0.0
211,7.465132629871368,-0.03694208599772538,30.899999618530295,51.073870468139646,34.82295455932616,75.87108459472655,0.0
212,7.412030398845675,-0.11359881628304717,30.899999618530295,52.67948713302612,32.858364009857226,73.47749233245847,0.0
213,7.36510820388794,-0.1409362386912108,30.897249555587774,51.53479881286622,32.6550671577454,72.09134712219237,0.0
214,7.322496676445009,-0.1279919393360615,30.8899993896484,56.99999992847442,32.15934038162233,71.28553237915041,0.431420761346817
215,7.303727817535401,-0.0910170705057681,30.8899993896484,19.789987857220694,31.5750923156738,69.4042816162109,0.8608658134937286
216,7.369838535785675,0.009442984531051468,30.8899993896484,81.66971921920776,31.5750923156738,69.4042816162109,0.5327202342450621
217,7.41523497104645,0.06175758056342601,30.893249464035016,43.113553142547616,31.5750923156738,69.4042816162109,0.05747487433254721
218,7.4452955722808865,0.08475939305499199,30.89274945259092,42.50854697227478,41.5109887123108,69.4042816162109,0.0429265467450023
219,7.539521479606629,0.1478642009198665,30.88749933242795,49.10317459106446,38.65933990478518,67.10151519775387,0.0
220,7.537690401077269,0.09787748819217083,30.8799991607666,48.04395589828491,23.54822912216185,59.94151878356936,0.014368718676269066
221,7.474784088134767,-0.0008027358213439547,30.8799991607666,51.65018320083618,29.06959652900697,64.5391077041626,0.03861593119800093
222,7.377544498443605,-0.10255260542035108,30.8799991607666,51.03724069595337,29.927350902557368,71.66130008697507,0.005388269573450092
223,7.323412275314334,-0.14088932313025,30.877749538421632,47.10561666488648,28.369352483749367,75.65744838714602,0.0
224,7.301515281200409,-0.12548994161188604,30.8700008392334,48.9096459388733,29.353479480743385,78.96799736022949,0.0
225,7.2688223004341115,-0.10599678885191681,30.8700008392334,49.41025638580322,29.10439543724059,77.85067691802978,0.0
226,7.240401899814609,-0.08263160567730665,30.8700008392334,49.59401683807373,25.412698316574087,77.10510730743405,0.0
227,7.212363052368164,-0.07119240574538707,30.8700008392334,50.50732622146607,24.0537242889404,78.59752273559567,0.0
228,7.19912575483322,-0.05629466129466891,30.8700008392334,49.85164852142335,22.307691717147865,80.48576946258547,0.0
229,7.183065187931061,-0.04857981111854314,30.8700008392334,50.13308935165407,21.22588515281679,81.10606613159183,0.0
230,7.157086467742923,-0.051484510581940424,30.8700008392334,52.68803415298463,21.937118148803705,83.7583520889282,0.03699945006519559
231,7.135532689094544,-0.051596696674823764,30.8700008392334,47.28632488250732,22.200854873657235,83.10440845489504,0.15895394403487442
232,7.104251241683957,-0.06178783793002367,30.8700008392334,48.475580024719235,15.956044006347662,82.66745986938477,0.08693074565380811
233,7.099558997154235,-0.04451454711670522,30.8700008392334,49.91819305419923,21.10256371498105,80.10585136413576,0.06627571340650319
234,7.278855228424073,0.1388948572101071,30.8700008392334,48.33760690689087,21.862026786804204,79.6034900665283,0.0
235,7.529564774036407,0.3393877156078816,30.8700008392334,51.594627857208266,18.96825428009033,79.67043266296389,0.0
236,7.553025937080383,0.280406191572547,30.8700008392334,51.87240562438965,14.294871473312384,77.94378223419189,0.0
237,7.481421887874603,0.12967562824487688,30.8700008392334,48.728937816619876,20.83211169242861,77.13124675750728,0.0
238,7.430951905250552,0.007355859267408955,30.8700008392334,50.09829092025756,21.643466854095475,77.07880935668946,0.0
239,7.376743352413177,-0.09361296156421309,30.8700008392334,51.164835262298595,21.800976753234828,77.23250770568845,0.03753827754408122
