sec,SCL,SCR,TEMP,BVP,PVA,HR,MOTION
0,2.0832316160202025,0.0010000000474974,32.68499917984009,49.93528709411621,0.0,30.0,0.0
1,2.062898647785187,-0.046158356932573995,32.70649967193604,51.705738639831544,0.0,30.0,0.0
2,2.061525344848633,0.0899301029508933,32.72400054931641,49.79426145553589,0.0,30.0,0.0
3,2.0693456411361693,-0.014685160547378414,32.73925094604492,48.30463981628418,0.0,30.0,0.0
4,2.076784610748291,0.0013151850018402777,32.75,49.19658117294311,5.170329546928405,46.81881217956543,0.0
5,2.065950483083725,-0.002738045805017458,32.75574903488159,50.82112321853638,7.334554290771484,63.37753124237061,0.01149497479200362
6,2.0410779297351835,-0.0243348641553893,32.7599983215332,49.987179565429685,12.378510355949402,73.25043106079102,0.007184359245002263
7,2.021431618928909,-0.03773960378020995,32.76699981689453,49.88827810287476,14.791209077835083,78.26684951782227,0.0
8,2.010216075181961,-0.03897044984623789,32.77449970245361,51.88705739974976,14.742368984222413,78.86980972290038,0.004310615547001358
9,2.003921592235565,-0.03162630035076289,32.779998779296875,48.02014656066895,14.144688391685486,86.0155740737915,0.0
10,2.0698034703731536,0.04349295817519304,32.779998779296875,51.53846158981323,32.31684958934784,92.55726013183593,0.0
11,2.19382306933403,0.15078183952718968,32.779998779296875,46.98107442855835,36.507937431335456,92.48575592041016,0.0
12,2.1920682370662687,0.1141808375716209,32.78675022125244,48.09951167106628,23.574481821060182,88.91708660125732,0.0
13,2.1244315922260286,0.017963936657179134,32.797249698638915,53.435897731781004,36.63309049606323,78.42169456481933,0.0
14,2.0769753098487853,-0.04782087672501795,32.79999923706055,46.732600688934326,44.5494499206543,75.3995403289795,0.0
15,2.047639411687851,-0.08393422011286011,32.8022497177124,50.35653233528137,30.901098442077636,93.8504508972168,0.0
16,2.0282219886779784,-0.08329923283308742,32.81275091171265,48.7075701713562,26.00732612609864,100.50251007080078,0.0
17,2.016129046678543,-0.05845573246479032,32.82325038909912,49.89682598114014,26.261904859542852,100.91677665710449,0.0
18,2.0366145849227903,-0.010913091755355684,32.83400115966797,49.99755802154541,31.79487133026123,111.83052635192871,0.0
19,2.08948792219162,0.048398909624665955,32.84149990081787,50.78632516860962,23.01587257385254,98.12783432006836,0.0
20,2.0832316040992738,0.03581382725387809,32.849998474121094,47.80097713470459,22.217337799072265,94.49469604492188,0.0
21,2.0461516261100767,-0.00667757133232951,32.858750343322754,49.98290567398071,24.993285036087038,90.1087854385376,0.0
22,2.02425457239151,-0.031042915768921302,32.86325006484985,50.466422367095944,26.713064861297607,86.14227142333985,0.0
23,2.010979038476944,-0.043447245471179466,32.87374973297119,47.71489610671997,26.259462976455687,86.84928112030029,0.0
24,1.9976271718740464,-0.04459716733545063,32.88425035476685,49.682539558410646,27.71672821044922,87.46205615997314,0.0
25,1.9852671861648559,-0.036763053946197,32.89475040435791,48.695970726013186,27.986569309234618,87.63282699584961,0.0
26,1.974929040670395,-0.030270936619490353,32.900001525878906,49.97802209854126,26.14835205078125,87.14461727142334,0.0
27,1.965964239835739,-0.02660400327295062,32.90924997329712,48.97313814163208,28.901099252700806,86.59680728912353,0.0
28,1.9588686883449555,-0.022629484999924863,32.91699867248535,50.57203931808472,27.232601261138917,86.24866046905518,0.01149497479200362
29,1.956503477692604,-0.01548320215661075,32.92099838256836,46.54151391983032,25.399267053604127,87.14810028076172,0.0
30,1.9744331240653992,0.007827347201600755,32.931750011444095,53.61660566329956,26.675824546813963,87.53223323822021,0.0014368718490004526
31,1.9867168307304381,0.0195070601301267,32.94549980163574,45.97435884475708,25.664224290847777,87.98876056671142,0.002873743698000905
32,1.9763786613941192,0.00671113586722636,32.95300025939942,52.67887697219849,25.967032432556152,88.41101112365723,0.03017430901527402
33,1.9643238663673401,-0.006876077518972986,32.96049919128418,52.108058834075926,30.647130966186523,88.62628936767578,0.0707659384235739
34,1.957762399315834,-0.01426242750603702,32.971001052856444,48.763125801086424,29.67643451690674,80.92622661590576,0.11243521906435487
35,1.970770898461342,-0.0003598359486204477,32.97999954223633,49.423687434196474,28.912087631225585,79.5328950881958,0.10022181048989291
36,2.0701849341392515,0.09264895981177687,32.98525066375733,44.737485027313234,39.56044006347656,60.60606002807617,0.10327516514807936
37,2.1489990174770357,0.14357506316155194,32.99275121688843,51.217948818206786,41.159951782226564,61.71391258239746,0.05298464931547636
38,2.1142841815948485,0.07535719405859706,33.00024995803833,48.412088012695314,44.66544618606567,74.92947998046876,0.007184359245002263
39,2.0652256906032562,0.0009565791959175923,33.01099853515625,49.34859590530395,24.220390415191652,82.2610870361328,0.07561538144946092
40,2.0342494010925294,-0.04767612754367283,33.02000045776367,50.97863235473633,22.148962020874023,83.10249328613281,0.016524026356637463
41,2.0152516186237337,-0.06815419364720583,33.02824907302856,51.154456615448,21.742368602752684,84.81853733062744,0.0
42,2.001518276333809,-0.05909145036712288,33.0390007019043,49.355311489105226,17.079364776611328,87.02956314086914,0.0
43,1.9915616363286972,-0.041067104041576354,33.04325037002563,51.004273414611816,19.00427327156067,88.33662433624268,0.019038552045822128
44,1.9831308901309967,-0.029504477092996216,33.04999923706055,49.22161169052124,19.774725389480594,90.5924892425537,0.014368718862533561
45,1.9732505142688752,-0.02546102642081675,33.05775089263916,50.56532354354859,20.597069931030273,91.52329025268554,0.01149497479200362
46,1.962530916929245,-0.024928901577368344,33.068249988555905,47.74664220809937,22.632479000091553,91.27814140319825,0.0
47,1.9534516364336014,-0.023992058541625703,33.07875156402588,51.39316253662109,22.766788959503174,91.1731330871582,0.0
48,1.9448301553726197,-0.02316235476173457,33.0892502784729,47.47924308776855,21.912088203430176,90.06543273925782,0.014368718490004526
49,1.9369716435670852,-0.021740979608148293,33.100248622894284,50.42735061645508,22.963370418548582,89.18136024475098,0.0
50,1.9275490641593933,-0.021935806376859504,33.11100044250488,48.81868133544922,21.48107442855835,88.62745513916016,0.0
51,1.920606091618538,-0.020143667189404326,33.119998931884766,51.57203893661499,22.80586109161377,87.64630432128907,0.0
52,1.913396093249321,-0.019111194647848558,33.12274951934815,48.19597053527832,23.29181900024414,88.31652374267578,0.0
53,1.905232411623001,-0.01937064193189139,33.130001068115234,51.50183153152466,23.59951124191284,90.56962852478026,0.0
54,1.8982513010501862,-0.01848330360371615,33.133500480651854,49.62576284408569,23.135531663894653,92.5166633605957,0.0
55,1.9177831321954728,0.0068272490549134025,33.141249656677246,48.6538462638855,24.749694442749025,95.02652244567872,0.0
56,1.9934690296649933,0.0763551349751651,33.150001525878906,51.51220989227295,25.203907585144044,98.25632457733153,0.0
57,2.0296334624290466,0.09214835837483407,33.155750560760495,47.84493293762207,22.882784032821654,96.67189979553223,0.0
58,2.0101016223430634,0.05038518896326423,33.16599884033203,48.208180809020995,21.169718790054322,94.54349784851073,0.0
59,1.993354606628418,0.013816097815288192,33.173248863220216,51.054944896698,21.887667751312257,92.85818367004394,0.0
60,1.9840845942497254,-0.012685265458276229,33.18000030517578,47.642857265472415,19.61782712936401,90.96407585144043,0.0
61,1.9729453325271606,-0.02823304566554723,33.187749004364015,50.00305252075195,19.391330575942995,90.44100322723389,0.024426821433007694
62,2.0085756927728653,0.013751510361908002,33.19224910736084,49.867521095275876,20.42002391815186,90.22504024505615,0.0
63,2.0418027579784392,0.04507903764024376,33.202750301361085,47.98656873703003,16.880342483520508,90.99699115753174,0.0
64,2.0192190289497374,0.01622830635751593,33.21024913787842,50.519535827636716,20.181319522857667,93.0832489013672,0.016883244365453708
65,2.003311261534691,-0.0038169544408446824,33.22050113677979,52.089132976531985,23.866910886764526,90.33522148132325,0.007543577253818505
66,1.9874797821044923,-0.02350763608701524,33.22999954223633,50.00061044692993,18.066544246673583,91.09685878753663,0.0
67,1.9731360793113706,-0.036262789694592304,33.237751197814944,49.67643480300903,17.728937911987305,92.79733085632323,0.0
68,1.9831690430641173,-0.01550507718930017,33.24550075531006,48.18681335449219,19.104395055770873,92.44133472442628,0.0
69,1.9790871858596801,-0.00993375208927314,33.25599899291992,47.57142839431763,20.819291496276854,92.859614944458,0.0
70,1.9637516349554063,-0.017507847258821096,33.2599983215332,52.71855926513672,22.583638048172,92.75099277496338,0.0
71,1.953108298778534,-0.02050689347088333,33.26699981689453,45.81440811157226,20.776557159423827,90.96602935791016,0.0
72,1.9432660847902299,-0.024279560847207865,33.27000045776367,52.02808313369751,21.289377212524414,90.51318969726563,0.01149497479200362
73,1.9355220049619675,-0.024503419129177886,33.27574949264526,48.10439567565918,21.90964508056641,90.36142654418946,0.0
74,1.9236960917711259,-0.025486872717738113,33.282999420166014,50.512209796905516,18.84554386138916,90.5980670928955,0.0
75,1.9201864331960679,-0.019000752968713598,33.29350032806396,52.19047632217407,18.038461780548097,91.1458703994751,0.0
76,1.924649834632873,-0.007452550414018296,33.30099945068359,43.00183134078979,18.26617813110352,93.33214702606202,0.0
77,1.9289986848831178,0.0013237101789854901,33.311501121521,55.350427341461184,22.104395151138306,94.64090538024902,0.0
78,1.9521164536476134,0.024427491798996864,33.31999969482422,45.255799770355225,27.316238784790038,94.86201934814451,0.06447962298989295
79,1.9641712933778765,0.03010960724204771,33.32900161743164,54.002442073822024,34.152625226974486,93.41838340759277,0.06322236210107798
80,1.9454786837100984,0.00437997102126245,33.33650074005127,49.716727828979494,34.35897445678711,93.38521575927734,0.0014368718490004526
81,1.9272820234298706,-0.016413044789805965,33.34099998474121,46.24664258956909,41.318681716918945,93.04422130584717,0.0
82,1.9149601757526398,-0.027572318259626583,33.349998474121094,50.3376070022583,39.507936811447145,92.63754158020019,0.0
83,1.913243478536606,-0.024080500379204704,33.35825023651123,50.95238094329834,16.16971848011017,93.07131633758544,0.0
84,1.9087801665067672,-0.01857237545773383,33.368749141693115,49.59035415649414,13.256410264968872,93.97403945922852,0.01975698824971913
85,1.898442029953003,-0.018459512991830657,33.37024898529053,46.15628800392151,17.664224720001222,98.12844963073731,0.041310064494609805
86,1.8852427750825882,-0.02294327472336585,33.38100090026855,55.7765570640564,12.037851238250733,102.03189659118652,0.029815091006457784
87,1.872501292824745,-0.027305683447048017,33.38999938964844,49.88095226287842,14.998778784275055,109.052516746521,0.0
88,1.868037962913513,-0.022978679323568892,33.39850120544433,50.475579833984376,10.55311336517334,119.11156578063965,0.0
89,1.866054254770279,-0.016125187091529325,33.400001525878906,46.246031761169434,17.62637367248535,105.38799133300782,0.0
90,1.8586535274982452,-0.015355741279199673,33.403250980377194,50.784493637084964,15.993894815444946,97.79194583892823,0.0
91,1.8493835270404815,-0.017055928963236454,33.40999984741211,50.38217334747314,16.316239261627196,95.56034774780274,0.0
92,1.8404949963092805,-0.019178095273673475,33.41124963760376,49.54090347290039,15.814407968521119,94.59038314819335,0.0
93,1.8353450298309326,-0.01786541943438346,33.41999816894531,49.57631254196167,18.385836029052733,94.11407432556152,0.0
94,1.8457594424486161,-0.001794174023962105,33.42900009155274,49.05250301361084,19.496946907043455,91.78357639312745,0.0
95,1.858081293106079,0.01231894954107695,33.43000030517578,50.04517726898193,19.989010524749755,91.1312198638916,0.0
96,1.8452635198831557,-0.00028810708026867236,33.43374967575073,51.36935272216797,19.727106380462647,89.50115737915038,0.0
97,1.8348109722137451,-0.009492885507643175,33.44099884033203,49.93772916793823,17.534187269210815,89.07208023071288,0.0
98,1.8397701919078826,-0.004302422490945857,33.45000076293945,48.659340381622314,18.879121494293212,88.86585960388183,0.0
99,1.8617435216903686,0.015513423521770117,33.452500343322754,50.13492078781128,20.52869400978088,88.8230972290039,0.0
100,1.8769646257162094,0.02712455238215621,33.459999084472656,48.17765579223633,18.519535303115845,88.62701988220215,0.0
101,1.8656346440315246,0.011996040435042179,33.46024913787842,49.86263732910156,19.22161169052124,87.73035697937011,0.0
102,1.8607516795396806,0.0023038326225104967,33.470001220703125,45.26495733261108,16.786325550079347,87.1175552368164,0.06681454088538878
103,1.857776126265526,-0.0051109383552101996,33.47799987792969,47.768620348116386,16.703296661376953,86.9565200805664,0.15176958739757535
104,1.9493697881698608,0.07856086874380704,33.485500717163085,54.783882999420165,16.703296661376953,86.9565200805664,0.04705755226314065
105,2.2017960011959077,0.2907509289681911,33.4900016784668,52.02991456985474,16.703296661376953,86.9565200805664,0.0777706885710358
106,2.4130604028701783,0.4119525410234928,33.49950008392334,48.981074285507205,20.22649564743042,77.02659435272217,0.005388269573450085
107,2.477683347463608,0.35686101540923115,33.5,48.85897426605224,21.56288146972656,73.26007080078125,0.0
108,2.4435407519340515,0.20116696450859303,33.507748699188234,48.577533435821536,25.269840955734253,73.26007080078125,0.007543577253818505
109,2.378421890735626,0.03186212667496873,33.5099983215332,51.18437128067016,15.24175809621811,69.18144817352295,0.025863693654537178
110,2.3131122827529906,-0.0872386697679758,33.51599960327148,51.09340629577637,6.964591026306152,65.1112289428711,0.0
111,2.2664952516555785,-0.12666844669729468,33.52000045776367,50.60195360183716,5.111111283302307,84.79243621826171,0.0
112,2.231055647134781,-0.11996545661240814,33.52000045776367,48.99084234237671,7.7167277336120605,107.68514633178711,0.0
113,2.2052674889564514,-0.09651114083826537,33.52724924087524,49.50183153152466,10.4444447517395,103.55856781005859,0.0
114,2.184553074836731,-0.07380721587687726,33.53199920654297,49.150183010101316,10.105006194114685,102.38443813323974,0.0
115,2.1621982574462892,-0.06205264525488015,33.540000915527344,49.377899742126466,10.744811058044434,102.11156940460205,0.0
116,2.142628234624863,-0.054349580500274844,33.54300041198731,49.92673997879028,11.775335693359375,97.86836547851564,0.0
117,2.125728613138199,-0.048426594771444745,33.54999923706055,50.43040313720703,13.669108748435974,95.7887487411499,0.0
118,2.107379400730133,-0.04669451415538782,33.55450019836426,49.16727714538574,17.264957427978516,92.79588317871092,0.012931846641004075
119,2.088953822851181,-0.045753418747335614,33.560001373291016,48.6312575340271,19.07081780433655,87.97313003540039,0.021912296116352068
120,2.074953430891037,-0.041304118651896655,33.56550045013428,50.65811958312988,19.978632211685184,84.1819995880127,0.005388269573450085
121,2.0815149366855623,-0.01925621347036209,33.56999969482422,47.5470085144043,21.401710033416748,82.81366920471191,0.010058102943003168
122,2.149990850687027,0.053645475651137475,33.57350044250488,51.17338199615479,22.88400468826294,82.71338996887206,0.008621231094002715
123,2.2511596977710724,0.13800349645316595,33.58000183105469,51.92185611724854,24.20207562446594,86.90343227386475,0.0
124,2.323145216703415,0.17041153162717812,33.584501075744626,46.78998775482178,18.14468946456909,92.55662174224854,0.00574748739600181
125,2.2962126433849335,0.09631113437935702,33.59000015258789,44.70085473060608,17.9731388092041,92.66409301757812,0.0
126,2.241584521532059,0.0030759153964027073,33.58700065612793,53.22954807281494,20.502442836761475,94.28716621398925,0.0
127,2.2060304403305055,-0.05458360984921451,33.59000015258789,50.06166067123413,21.98290514945984,83.61689701080323,0.0
128,2.1757789969444277,-0.08249101210385557,33.59000015258789,49.51159963607788,19.702075004577633,79.43277473449707,0.0
129,2.151478612422943,-0.08027143999934191,33.59000015258789,51.04700860977173,20.927961158752442,77.52937316894531,0.00574748739600181
130,2.1338541746139525,-0.06294870907440776,33.597998809814456,49.553113746643064,20.6697199344635,77.12693367004394,0.0
131,2.1190527200698854,-0.04959878800436849,33.602248954772946,48.27472543716431,18.40293083190918,80.72301635742187,0.0014368718490004526
132,2.108180505037308,-0.038636220991611424,33.61000061035156,51.96703310012818,22.131868267059325,84.72419166564941,0.002873743698000905
133,2.1007034480571747,-0.029019619431346615,33.61000061035156,48.761294269561766,22.0268611907959,86.62513027191162,0.0
134,2.0889538288116456,-0.027199452416971286,33.613999938964845,49.69108686447144,21.454211950302124,89.18343963623047,0.0
135,2.074724566936493,-0.02942658667452629,33.619998931884766,50.443833637237546,23.760683822631833,90.41630477905274,0.0
136,2.0626315832138062,-0.02990454379469153,33.619998931884766,49.93589715957641,24.4951162815094,87.69070491790771,0.0
137,2.0523316204547886,-0.029025808721780733,33.619998931884766,48.05494499206543,25.064713478088382,85.66629180908203,0.0
138,2.043061637878418,-0.026884578587487294,33.62950096130371,51.95726461410523,24.56410207748413,83.91809120178223,0.0
139,2.0326090514659882,-0.025899249408394047,33.630001068115234,47.42185583114624,25.531135559082028,83.97891998291016,0.01149497479200362
140,2.0233008861541752,-0.024315364053472822,33.630001068115234,51.32600727081299,26.714286136627198,86.20492172241211,0.00574748739600181
141,2.0249412536621096,-0.01372644330840552,33.630001068115234,49.14041471481323,27.82051315307617,87.53378143310547,0.0
142,2.0276879370212555,-0.004976516379974735,33.638499641418456,49.84065952301025,26.886446952819824,89.7368818283081,0.0
143,2.019180864095688,-0.00870468189241361,33.63999938964844,47.684371376037596,27.388889169692995,88.643843460083,0.0014368718490004526
144,2.0185704946517946,-0.005297993484418795,33.63999938964844,47.98717966079712,28.88095269203186,88.16108684539795,0.03232961725443599
145,2.020172727108002,-0.002122470895119435,33.64099960327148,42.6159948348999,25.51892471313477,88.86397094726563,0.07417850624769924
146,2.0591982781887053,0.034766304562799596,33.650001525878906,52.9017092704773,30.96764302253723,89.53075065612794,0.05244582183659073
147,2.1475875079631805,0.10778775382786984,33.650001525878906,56.097069358825685,41.92918014526367,89.68609619140625,0.04059163052588698
148,2.2857218980789185,0.2086661741137504,33.650001525878906,49.44688653945923,41.59340496063233,90.93345718383787,0.055858393944799856
149,2.472228157520294,0.3218343362212181,33.650001525878906,48.854090213775635,27.092795419692994,93.26592292785645,0.008621231094002715
150,2.5010299921035766,0.2544398572295904,33.65999984741211,47.318681144714354,21.514651393890382,96.87103404998778,0.0
151,2.4230170607566834,0.08988634136039762,33.66124963760376,49.799145221710205,19.780219078063965,98.05596923828125,0.0
152,2.3489715218544007,-0.03969410409044939,33.66999816894531,51.5311354637146,17.00488452911377,94.52767467498781,0.0
153,2.3072756230831146,-0.1047101557254791,33.66999816894531,51.286324977874756,17.447496938705445,90.66318168640136,0.0
154,2.2799233973026274,-0.1133750872686505,33.673248863220216,53.22649564743042,14.933455348014832,88.8556999206543,0.0
155,2.257034510374069,-0.08966109007596967,33.68000030517578,49.02991418838501,16.971916961669923,90.38100738525391,0.0
156,2.231170082092285,-0.07141036093235012,33.68000030517578,49.16239309310913,16.98656940460205,93.13282775878906,0.0
157,2.2180090248584747,-0.05245257569476959,33.68824892044067,45.79181909561157,17.240537643432617,93.0264139175415,0.0
158,2.2458571076393126,-0.005334821727592492,33.689998626708984,49.885836601257324,17.36996364593506,92.80742645263672,0.0
159,2.2598574817180634,0.015677692496683396,33.689998626708984,53.26007308959961,17.67399196624756,92.50204658508301,0.00574748739600181
160,2.248451220989227,0.00787196096107434,33.693999481201175,49.86507930755615,17.331502437591553,90.1859926223755,0.0
161,2.3813592910766603,0.12916028238832947,33.70100059509277,46.66361427307129,20.890110635757445,93.9004644393921,0.0
162,2.5183111131191254,0.2170752607285976,33.709999084472656,46.866910743713376,24.11172199249268,93.24232959747313,0.0
163,2.4577318668365478,0.10296545755118129,33.709999084472656,50.82295475006104,26.327228355407716,89.00467453002929,0.0
164,2.361713004112244,-0.022631114929390597,33.709999084472656,48.61172161102295,21.23076891899109,85.85963668823243,0.0
165,2.3031937718391418,-0.09700858835130928,33.716500473022464,52.07631244659424,20.202685928344728,84.60470809936524,0.0
166,2.2679067313671113,-0.12879319321364163,33.720001220703125,49.435897541046145,19.877899169921875,84.35413627624511,0.0
167,2.2457426726818084,-0.10895180217921732,33.724750423431395,50.56410217285156,18.31501793861389,86.7897117614746,0.0
168,2.227774900197983,-0.07446603439748284,33.72999954223633,48.2368745803833,20.61050033569336,90.6829641342163,0.0
169,2.211104166507721,-0.05373638626188036,33.72999954223633,49.7222222328186,22.577533626556395,92.47850799560548,0.0
170,2.196073818206787,-0.043563574925065,33.73925151824951,49.93223466873169,23.05128173828125,93.65191535949705,0.0
171,2.1942045688629146,-0.027500840649008696,33.7400016784668,52.60439567565918,25.93406562805176,94.17679443359376,0.015805590339004978
172,2.1912671327590942,-0.018072299659252094,33.741001510620116,49.02686166763306,26.24053750038147,94.32665424346924,0.0
173,2.1701330721378325,-0.028201321884989677,33.75,44.52380971908569,23.805249977111814,94.3396224975586,0.0
174,2.1485412061214446,-0.03757798243314023,33.75524911880493,50.37973117828369,26.275946807861327,94.01734428405761,0.0
175,2.1427426815032957,-0.03160144486464557,33.7599983215332,49.43589735031128,26.39804649353028,91.81253356933594,0.0
176,2.151326036453247,-0.013720764475874553,33.76024837493897,49.177655410766604,24.435286951065063,91.54745426177979,0.0
177,2.1454130589962004,-0.010788185568526348,33.77000045776367,50.35103750228882,26.133088779449462,92.8012538909912,0.0
178,2.1304589748382567,-0.016968829184770558,33.77000045776367,47.699633502960204,24.505494117736816,93.86034774780275,0.0
179,2.1168782711029053,-0.023606602055951918,33.77000045776367,51.66117191314697,21.826007747650145,94.19341545104979,0.0
180,2.102000522613525,-0.031504726316779794,33.77000045776367,52.41269855499267,21.236264133453368,94.32861309051513,0.0
181,2.0930356979370117,-0.03045033966191108,33.77949886322021,47.122100257873534,18.49023241996765,95.0647979736328,0.0
182,2.0862453043460847,-0.02520336508750911,33.779998779296875,50.53663005828857,19.31501874923706,94.3369264602661,0.02873743698000905
183,2.077280467748642,-0.02298023966141042,33.78750038146973,49.29242963790894,21.336995983123778,93.5509641647339,0.018679334037005883
184,2.0694601237773895,-0.020675105554982982,33.790000915527344,50.034187984466556,19.18131833076477,93.3053747177124,0.012931846641004075
185,2.0623264074325562,-0.01915836003608997,33.790000915527344,50.62148962020874,18.168498754501343,93.24009704589844,0.0
186,2.0524460673332214,-0.021180423628538808,33.79649982452393,48.7222222328186,19.483516216278076,93.24009704589844,0.014368718490004526
187,2.0412686824798585,-0.02374404044821854,33.79999923706055,49.44749698638916,18.6080587387085,93.24009704589844,0.002873743698000905
188,2.0298623561859133,-0.025958036212250547,33.79999923706055,50.58669109344483,18.9743595123291,93.24009704589844,0.0
189,2.020020145177841,-0.02601318727247412,33.80174961090088,50.456654167175294,21.25030498504639,94.22923488616942,0.0
190,2.01857048869133,-0.017881050892174198,33.810001373291016,49.36813163757324,18.537851190567018,96.16758480072022,0.0
191,2.038598281145096,0.00820320923276083,33.810001373291016,48.25030517578125,20.210011672973632,95.25391845703125,0.0
192,2.056489706039429,0.025420159380882924,33.817000198364255,50.12148952484131,19.61782579421997,94.68225135803223,0.0
193,2.042870891094208,0.008629877858766087,33.82099990844726,50.025030517578124,19.633699417114254,93.83294105529785,0.0
194,2.0235679149627686,-0.012253836262971116,33.83000183105469,49.15750904083252,19.510988998413087,92.16797885894775,0.0
195,2.0101779282093046,-0.025341917062178206,33.83000183105469,50.498168754577634,18.326007843017578,91.90961322784423,0.0
196,2.000564566254616,-0.03052060250192875,33.83900032043457,46.48717975616455,19.072038841247554,93.9215560913086,0.0
197,1.9920575588941574,-0.028296684706583565,33.84000015258789,51.250915718078616,19.122100114822388,97.05457305908202,0.0
198,1.9814523756504059,-0.02601872733794148,33.844249439239505,52.33577527999878,18.998779296875,98.3157958984375,0.007184359245002263
199,1.9723730981349945,-0.023800869612023177,33.849998474121094,49.21245422363281,18.998779296875,99.00990295410156,0.06771258562803262
200,1.9754631042480468,-0.011745598218112675,33.849998474121094,46.95421237945557,18.998779296875,99.00990295410156,0.024426821433007694
201,2.0036927431821825,0.01967167444527145,33.849998474121094,49.36630020141602,18.67887687683106,97.41147937774659,0.0
202,2.0121997833251952,0.025155294546857433,33.849998474121094,49.99877939224243,28.23076934814453,93.57497482299804,0.03664023280143735
203,1.9962919890880584,0.00573216583143216,33.85074863433838,52.18986577987671,26.33699550628662,91.92157287597658,0.022630731947720036
204,2.0070879250764846,0.012234387631178786,33.86000061035156,49.98717966079712,22.94505500793457,92.77893676757813,0.0035921797156333903
205,2.0475249528884887,0.04145874870009718,33.86000061035156,49.55738716125488,22.755188846588133,90.59468994140624,0.0
206,2.045045346021652,0.026476380508393006,33.86549968719483,49.21062259674072,23.30402908325195,87.9844762802124,0.0
207,2.0182271778583525,-0.004302169928268978,33.869998931884766,49.35409059524536,26.16788763999939,85.83209629058838,0.0
208,1.9998397827148438,-0.023433067696168965,33.87975101470947,51.10927972793579,27.0073260307312,83.56633739471435,0.0
209,1.9930875599384308,-0.029621078399941263,33.880001068115234,49.38949909210205,24.556776046752926,85.41200561523438,0.0
210,2.0311975479125977,0.01281622912410966,33.880001068115234,50.29243001937866,28.293650341033942,87.5983980178833,0.018679334037005883
211,2.1056627154350283,0.08332337560132141,33.8855001449585,51.419413566589355,29.579365158081053,88.61018867492676,0.0
212,2.13976714015007,0.09851453136652703,33.88999938964844,46.69169750213623,28.240537261962892,91.99165382385254,0.0
213,2.154225301742554,0.08486382402479643,33.8935001373291,50.63675231933594,27.515873146057128,93.17581577301026,0.0
214,2.131145656108856,0.031601022059658083,33.900001525878906,48.07142868041992,23.807692527771,90.39477977752685,0.0
215,2.0926923394203185,-0.027339943923288906,33.90800018310547,47.92612934112549,23.2753351688385,88.79680366516114,0.0
216,2.066751605272293,-0.055130806099623376,33.90999984741211,51.56227130889893,24.753357696533204,86.85047855377198,0.008621231094002715
217,2.050843834877014,-0.05767660029232495,33.90999984741211,50.02136726379395,26.43528723716736,80.1772705078125,0.004310615547001358
218,2.0411160647869107,-0.04683243446052067,33.91024980545044,49.268620300292966,24.728327465057372,77.8524564743042,0.0
219,2.0327616155147554,-0.033272901596501404,33.91999816894531,50.338217163085936,23.873016357421875,80.1506217956543,0.0
220,2.0265434682369237,-0.023115279898047403,33.92424907684326,49.7539680480957,21.844933128356935,82.99209938049316,0.0
221,2.0171208918094634,-0.021318468265235375,33.93000030517578,49.02197780609131,21.797313690185547,88.41768341064453,0.0
222,2.006935316324234,-0.022194547718390766,33.9359992980957,53.15995101928711,22.93040237426758,91.74211444854737,0.0
223,1.9971312582492828,-0.02329818946309382,33.94024868011475,46.53662996292114,22.626984882354737,94.46801147460937,0.0
224,1.9887005239725113,-0.022888998640701118,33.95000076293945,48.719169807434085,22.893772363662723,97.53125381469728,0.0
225,1.9904553204774857,-0.012968388420995286,33.95000076293945,49.70573892593384,25.184981107711792,95.84012355804444,0.050110904313623875
226,1.9935453683137894,-0.004034042777493548,33.95000076293945,50.25641031265259,38.10805864334107,91.95349025726318,0.0
227,2.0017090409994127,0.007640422997064883,33.95000076293945,50.04151391983032,26.989010620117188,92.58466033935547,0.0
228,2.086321598291397,0.0849211321212351,33.95949916839599,48.03540925979614,18.236874389648435,94.1499008178711,0.0
229,2.150448626279831,0.1218388326466083,33.96349983215332,50.69108667373657,20.581197261810303,95.15901947021483,0.0
230,2.1121478915214538,0.05408954350277777,33.971001052856444,49.75152645111084,20.080586719512944,94.94101753234864,0.0
231,2.0660268008708953,-0.010794044990689125,33.97999954223633,48.27899885177612,18.490231943130496,94.55898017883301,0.0
232,2.042832750082016,-0.04566179569810622,33.97999954223633,52.35775318145752,21.47618975639343,93.77499103546143,0.0
233,2.029290133714676,-0.05856009162962429,33.97999954223633,48.51465244293213,23.032966375350956,90.74232273101805,0.0
234,2.017235332727432,-0.04951852681115262,33.98975162506103,51.031135368347165,22.20329632759094,92.10773010253907,0.0
235,2.012848377227783,-0.029686151165515123,33.9900016784668,52.037240505218506,22.015263080596924,94.0866870880127,0.0
236,2.0181509017944337,-0.009855624624469735,33.9900016784668,44.28937711715698,21.85592269897461,94.93670654296876,0.0
237,2.0294808626174925,0.007178398518590212,33.9900016784668,51.85470104217529,21.61416425704956,94.86932258605958,0.0
238,2.0359279453754424,0.014131019520573277,33.99900016784668,49.7765567779541,20.59340629577637,94.19291687011719,0.0
239,2.0320368111133575,0.007707834380562382,34.002999496459964,49.31196594238281,20.269230222702028,90.68851146697997,0.0
