sec,SCL,SCR,TEMP,BVP,PVA,HR,MOTION
0,0.8710363999009132,0.0010000000474974,28.98099989891052,50.70695962905884,12.039072036743164,39.370079040527344,0.9160057932138443
1,0.8730964094400406,-0.04787135989172388,29.054500102996826,47.57936506271362,12.349816823005677,48.534763431549074,0.3028207406401634
2,0.8856852903962136,0.05868602790869768,29.109249973297118,52.30830278396606,17.239927220344544,70.29418096542358,0.3320969969034195
3,0.9263512030243873,0.046344031440094066,29.16299991607666,49.8693528175354,18.540292859077454,89.51826686859131,0.02604330163449048
4,1.0161137700080871,0.11702421084046358,29.215749645233153,48.712454319000244,10.761904811859129,97.95337219238282,0.013650282472372039
5,1.104045218229294,0.1669059108942747,29.26575036048889,50.47435903549194,16.585470032691955,100.0959939956665,0.1726042259484529
6,1.149479666352272,0.1605997022241354,29.31324973106384,48.71611738204956,28.949939727783203,96.77917003631592,0.12788159325718876
7,1.1489837348461152,0.10516674928367134,29.355750465393065,51.152625274658206,28.04151358604431,90.7493854522705,0.08441622052341693
8,1.1226615250110625,0.03187252939969762,29.408999824523924,49.9230770111084,28.66239376068115,85.54597053527831,0.007184359245002263
9,1.0987044841051101,-0.019948876829585016,29.459250116348265,48.695359992980954,29.616606140136717,81.61863403320312,0.018679334037005883
10,1.1130863398313522,-0.012943192472084763,29.513750314712524,53.64102554321289,25.937119007110596,79.88567657470703,0.09070253614336249
11,1.1796929746866227,0.05072467280551788,29.561999702453612,48.17521362304687,28.33699607849121,79.90911693572998,0.3044372133910656
12,1.2202063113451005,0.08097429331392046,29.605250453948976,49.49328479766846,27.813796615600587,81.82935123443603,0.2563020087778568
13,1.2573625802993775,0.09807379245758052,29.64399948120117,44.36996345520019,23.931623458862305,83.6820068359375,0.12518745735287665
14,1.2874233186244965,0.09479898177087301,29.68250036239624,53.98840036392212,20.278388023376465,103.6936185836792,0.08244052026420828
15,1.305467391014099,0.07368809301406139,29.72399983406067,53.54700889587402,15.335775375366214,118.81188201904294,0.13829891234636302
16,1.345904415845871,0.0781616045162081,29.76950044631958,49.583638763427736,13.523809337615967,133.65989608764647,0.20708914957940575
17,1.3925214380025863,0.09189103245735167,29.809499549865723,43.08363833427429,13.157508850097656,142.48575286865236,0.16721595712006088
18,1.4710303038358687,0.13209070861339564,29.851250314712523,51.393772983551024,13.919413566589355,147.05882263183594,0.14153187479823823
19,1.5507599085569381,0.16359000690281386,29.893249464035033,50.87790012359619,17.611721253395082,134.61278915405273,0.12303215023130176
20,1.5797143518924712,0.13749146610498425,29.936750078201293,49.31135530471802,28.062270784378047,87.49909591674803,0.10201789941638702
21,1.5499969452619553,0.058954653842374624,29.975999450683595,48.24847354888916,14.90964617729187,66.79753198623658,0.08154247812926767
22,1.4823221564292908,-0.038298752739501604,30.008250188827514,49.619047451019284,14.54212498664856,62.76183137893677,0.05603800099343057
23,1.4113284826278687,-0.11208860073238607,30.04774980545044,47.89804658889771,13.78266201019287,65.69363403320312,0.005388269573450085
24,1.3648258924484253,-0.13260365556925532,30.082749986648558,50.20879135131836,11.029304218292236,71.75253276824951,0.048314816504716834
25,1.3609347850084306,-0.0939452666789293,30.11500039100647,50.01770467758179,10.137972903251647,74.19083805084229,0.0
26,1.3962599515914917,-0.0201603219276876,30.146249532699585,49.81868143081665,11.998778867721558,75.32721328735352,0.059091354720294434
27,1.419186994433403,0.02383038918487725,30.178500270843507,54.43589735031128,15.211233043670655,76.19338836669922,0.0
28,1.3969847708940506,0.008441396645503103,30.211249685287477,48.42857141494751,15.920635080337524,79.27066459655762,0.0
29,1.3612399578094483,-0.026010960829444197,30.242999839782716,49.18192901611328,18.749694347381592,82.90642700195312,0.0
30,1.3480025827884674,-0.037794390879571385,30.269750452041627,47.815017986297605,20.545787191390993,84.3383399963379,0.0
31,1.3579210758209228,-0.023046128032728996,30.296749973297118,49.31257619857788,21.5238094329834,83.49616241455078,0.0
32,1.3543351352214814,-0.015763632906600787,30.32524981498718,52.007936763763425,22.007936334609987,82.23889827728271,0.0
33,1.3567384690046311,-0.0020915015862556074,30.350000381469727,50.462149143218994,22.05006036758423,80.00344009399414,0.02227151393890379
34,1.370357373356819,0.014756089891307,30.381249713897706,48.66849784851074,24.126983642578125,78.21969051361084,0.046698335185646964
35,1.419949945807457,0.05601518377661703,30.402749681472777,48.53724069595337,26.511599636077882,77.5346664428711,0.0
36,1.4487899363040924,0.06736460570245978,30.42600021362305,50.053724098205564,25.94566564559937,77.46327476501465,0.010058102943003168
37,1.4137699484825135,0.01697084285115124,30.457999849319457,47.4536018371582,20.361416625976563,79.19259033203124,0.0
38,1.3652455240488053,-0.038372807111591065,30.479999542236328,51.81807107925415,18.03418750762939,80.35948181152344,0.0
39,1.333239233493805,-0.06731280758976932,30.50125002861023,49.58119668960571,18.11965751647949,80.428955078125,0.00574748739600181
40,1.3134403496980667,-0.07299240641295907,30.52250051498413,51.26190443038941,19.641026115417482,80.66439533233643,0.0
41,1.3026825845241548,-0.05706509314477439,30.54650001525879,48.48290605545044,21.816850471496583,78.49068107604981,0.004310615547001358
42,1.31870479285717,-0.015640997439550098,30.56874966621399,48.06471328735351,24.34065961837769,77.7053997039795,0.022271513380110245
43,1.3771477341651917,0.05118973683565851,30.59000015258789,51.802197551727296,24.903540802001952,78.26341552734375,0.06124666146934028
44,1.4165929079055786,0.07955739293247457,30.611250638961792,48.93345537185669,22.332112884521486,79.70165119171142,0.08962488174438474
45,1.4335306942462922,0.07632814627140758,30.632249689102174,53.843101787567136,22.27106285095215,79.73422241210938,0.0301743088290095
46,1.4857936322689056,0.09771238174289462,30.653499698638917,48.62393140792847,22.27106285095215,79.73422241210938,0.042387719824910124
47,1.5156254768371582,0.08834439739584918,30.67150011062622,48.70207576751709,23.16422462463379,80.27017021179199,0.010058102943003168
48,1.5441602766513824,0.08055292405188078,30.693000555038452,46.82905960083008,24.151403427124023,80.86253356933594,0.06358158010989422
49,1.5853221237659454,0.08907785620540373,30.71474919319153,44.269841289520265,24.151403427124023,80.86253356933594,0.031790789589285814
50,1.6515854239463805,0.1165015438571572,30.734499645233154,54.622100067138675,24.151403427124023,80.86253356933594,0.0
51,1.749969482421875,0.16700642742216582,30.753250074386596,55.35958490371704,24.151403427124023,80.86253356933594,0.0
52,1.8472090870141984,0.2043520167469978,30.771750497817994,49.37179470062256,21.39072003364563,81.09568500518799,0.007184359245002263
53,1.8925672203302384,0.18038729056715963,30.78675079345703,43.5006103515625,17.655677795410156,81.41112518310547,0.16021121107041833
54,1.9255272060632707,0.1444291394203901,30.804249334335328,55.77777795791626,16.6001220703125,81.50811004638672,0.27659782581031317
55,1.9727545946836471,0.12481395024806256,30.824249792099,47.04578762054443,14.407814025878906,81.68822479248047,0.10381399020552629
56,1.9505523890256882,0.0487929051450919,30.84000015258789,47.714285659790036,16.52686128616333,71.34363555908203,0.06340197026729577
57,1.8544572323560715,-0.06709108401555565,30.858000564575196,49.912087535858156,10.68864459991455,63.14957828521729,0.04885364267975087
58,1.7686239182949066,-0.13940892592072482,30.879749822616578,49.95177059173584,10.170940017700195,65.42574920654297,0.021553077921271306
59,1.7379909694194793,-0.13821385856717822,30.897249555587774,50.19108657836914,12.453601741790772,79.90252647399902,0.0
60,1.7198324501514435,-0.11233841776847833,30.914499950408935,50.374236488342284,16.03418755531311,85.00120086669922,0.0
61,1.6773735672235488,-0.10016011856496329,30.930250310897826,47.669719219207764,18.68131904602051,85.6959327697754,0.0
62,1.6350291460752486,-0.09278740864247081,30.945500659942628,48.85836381912232,17.54945011138916,84.11212139129638,0.0
63,1.6151539653539657,-0.07597482837736604,30.955999755859374,49.61599502563477,19.145298957824707,83.14186973571778,0.0
64,1.6413235872983933,-0.024782427882018947,30.9634991645813,51.920634746551514,20.128205251693725,81.64407958984376,0.0
65,1.7090365320444107,0.0541264716768637,30.974249410629273,52.01892538070679,22.714895868301394,80.26144599914551,0.03053352758288382
66,1.74703206717968,0.08509805947542184,30.9847496509552,47.45604400634765,26.71489644050598,79.23022232055663,0.0811832590028643
67,1.7101809799671173,0.032666658658126804,30.99749994277954,48.534798526763915,29.21611671447754,79.07094020843506,0.19505535177886482
68,1.668103575706482,-0.022164913517190098,31.01600036621094,52.52686204910278,30.749694061279296,79.59276428222657,0.663834774121642
69,1.656582835316658,-0.04103076271712778,31.02750062942505,47.60195360183716,25.56776494979858,83.88471260070801,0.12446902096271509
70,1.6750083953142165,-0.02003209844042427,31.040000915527344,51.51587314605713,20.5219780921936,87.85671463012696,0.019218160957097993
71,1.713690596818924,0.025946710491552904,31.04924964904785,50.098290634155276,18.83821797370911,87.87048778533935,0.0
72,1.679280984401703,-0.0024055258931184676,31.062249517440797,49.53724031448364,21.05494480133057,86.39862594604492,0.018320116214454157
73,1.610347294807434,-0.06291690859943624,31.07299976348877,45.18742351531982,26.405371952056885,83.76569938659668,0.006106705404818053
74,1.5735343515872955,-0.08514444772154087,31.08049993515014,51.15384635925293,26.200243854522704,82.6397689819336,0.0
75,1.565866580605507,-0.07442392520606514,31.091000175476076,51.79181928634644,25.489620971679688,82.23692474365234,0.0
76,1.5393917560577393,-0.07217571400105949,31.101500415802,52.14529905319214,24.813797283172608,82.09339122772217,0.0
77,1.5020065933465958,-0.07329291459172958,31.115250730514525,49.88278369903564,24.409035634994506,82.61935596466064,0.0
78,1.4937284350395204,-0.051018436346203025,31.12874937057495,48.036019515991214,29.887057065963745,83.8574447631836,0.0
79,1.5480513989925384,0.016973859701829457,31.136499309539794,50.52441987991333,33.211233139038086,83.6719955444336,0.0
80,1.5791802942752837,0.04836269943043583,31.14699954986573,46.08791189193725,33.777777671813965,82.71361255645752,0.0
81,1.5789513945579527,0.04295289563015097,31.157749795913695,52.138583755493165,29.532356309890748,82.29617595672607,0.0
82,1.5606021255254745,0.014216750967898373,31.16850004196167,52.0909649848938,27.641025733947753,82.11726398468018,0.00826201327145099
83,1.5160451024770736,-0.03979817826766515,31.175750207901,47.52197818756103,24.39560432434082,82.04568176269531,0.01867933440953492
84,1.4641254872083664,-0.08572617620229714,31.18000030517578,51.29120874404907,22.8559211730957,81.91262130737304,0.0
85,1.4263588398694993,-0.09835233315825459,31.190750551223754,46.054944801330564,26.496948146820067,80.28231201171874,0.0
86,1.4068269938230515,-0.08478623088449237,31.204250049591064,47.270451641082765,24.744811105728147,78.13511486053467,0.0
87,1.4241843938827514,-0.03531343918002671,31.214999198913574,53.70940113067627,23.88461594581604,77.4997766494751,0.00574748739600181
88,1.468894013762474,0.027636609552428082,31.225499439239503,50.43467636108399,22.862026977539063,79.08740539550782,0.01149497479200362
89,1.464888447523117,0.027055914886295752,31.23299961090088,51.175213718414305,22.0604389667511,81.3088493347168,0.0071843594312667805
90,1.4296014308929443,-0.008993677949183581,31.243999862670897,49.67765588760376,24.757020568847658,84.5299560546875,0.0
91,1.4111377239227294,-0.02803776375949375,31.25125002861023,48.7246639251709,24.921855545043947,87.02460861206055,0.0
92,1.4157536774873734,-0.02374278972856693,31.260000228881843,46.08608026504517,23.74542183876038,89.98325214385986,0.0
93,1.4109851479530335,-0.021907533379271562,31.2652503490448,52.773504161834715,24.650794219970706,91.74416828155518,0.0
94,1.3900418072938918,-0.028599528269842234,31.275750589370727,49.92979249954224,25.693528366088866,90.04078636169433,0.0
95,1.3824503630399705,-0.023584306472912403,31.2865008354187,45.59035406112671,26.832722473144532,85.1093864440918,0.00574748739600181
96,1.3919110625982285,-0.00798085430287752,31.297249698638915,52.00061044692993,23.770451545715332,81.36143646240234,0.018679334037005883
97,1.3904614478349686,-0.00540687174070622,31.30774941444397,48.92429790496826,23.16605625152588,81.3454978942871,0.0
98,1.3760795950889588,-0.013521358463913166,31.315249586105345,50.108058547973634,20.01220922470093,81.74956588745117,0.0
99,1.3572725504636765,-0.02548955962993201,31.325749826431274,53.282662105560306,18.0463981628418,81.91126251220703,0.19469613078981635
100,1.3395336776971818,-0.03599267769604917,31.336500072479247,52.38888883590698,18.0463981628418,81.91126251220703,0.20080283395946022
101,1.326372569799423,-0.038094433303922356,31.347500324249268,49.22710628509522,17.482906055450442,82.52473869323731,0.04184889290481802
102,1.32633441388607,-0.024656717083416827,31.36100063323974,36.60134334564209,19.140414810180665,84.36701202392578,0.2633067632094025
103,1.3385418146848678,-0.0021320134491361253,31.37524995803833,43.303418565355244,21.0256404876709,84.74576568603516,1.0386786967515946
104,1.3384655267000198,0.0029740556252363325,31.38899936676026,54.91208810806275,21.0256404876709,84.74576568603516,0.1422503093257546
105,1.3256096184253692,-0.006715290568536097,31.399499607086188,54.8009765625,21.72161121368408,84.3175724029541,0.10076063852757208
106,1.3226340562105177,-0.007871605525724546,31.406999778747558,52.893162155151366,26.929182052612305,83.98954105377197,0.15697824656963344
107,1.3219092249870301,-0.008167737501207691,31.414499950408935,57.34432210922241,29.035409927368164,81.85617065429688,0.5140408858656883
108,1.3254569977521897,-0.0025264224834245174,31.421750116348267,36.0579975605011,41.41636276245117,78.89546203613281,0.2503749083727598
109,1.3661229252815246,0.037535511329770024,31.43000030517578,49.52319889068603,41.41636276245117,78.89546203613281,0.035023750923573925
110,1.403317353129387,0.06324988016858694,31.43925051689148,52.823565292358396,34.200244998931886,83.30556735992431,0.05100895073264833
111,1.3964888423681259,0.04070663359016176,31.44050054550171,50.211843204498294,21.224054241180422,86.50864276885986,0.02298994958400724
112,1.3778344124555588,0.009136364989899417,31.454250049591064,51.84126987457275,21.924298286437992,87.30328350067138,0.0
113,1.3500244081020356,-0.027118470962159295,31.46524920463562,50.4847375869751,24.69169726371765,87.594482421875,0.4685998231172562
114,1.318971833586693,-0.05626605823636051,31.4787495136261,58.667276763916014,33.81257576942444,87.70488147735595,0.6309663455933332
115,1.2992873936891556,-0.05980433765798804,31.48599967956543,41.70573868751526,40.806470203399655,87.23760223388672,0.030533526092767705
116,1.2915051311254502,-0.04614727497100827,31.490499782562257,51.68315048217774,32.036629104614256,86.65536956787109,0.0
117,1.2916195899248124,-0.02663798700086769,31.50125002861023,48.31684980392456,29.15018253326416,85.41446380615234,0.0
118,1.3014999777078629,-0.0028343177647911803,31.512000274658202,50.13064689636231,28.32539677619934,81.45407066345214,0.0
119,1.340792566537857,0.03926570685580367,31.52250051498413,48.89682502746582,29.317460680007933,78.5501298904419,0.0
120,1.3779488533735276,0.06562004219740626,31.533250761032104,47.61172161102295,29.81684970855713,79.02466278076172,0.004310615547001358
121,1.386303275823593,0.05589007521048185,31.543500328063963,46.37362651824951,30.92551918029785,80.22586364746094,0.0014368718490004526
122,1.3666188538074493,0.01875577470273124,31.554249334335328,50.225885200500485,26.516484260559082,80.80009994506835,0.02298994958400724
123,1.3365581214427948,-0.02256158459349531,31.5649995803833,51.34004878997803,21.15750923156738,80.73302764892578,0.0
124,1.3161488622426987,-0.043937414884567226,31.57524981498718,51.15811948776245,18.315017700195312,80.37508392333984,0.0
125,1.3135547995567323,-0.036795462202280735,31.589250135421754,50.018315124511716,18.49633631706238,80.31472263336181,0.0
126,1.352847370505333,0.01386145506985483,31.596500301361083,50.93406581878662,20.598290443420407,80.34890747070312,0.0
127,1.4172032862901687,0.07603463744744655,31.60825057029724,47.93894996643066,24.91025605201721,81.19203414916993,0.0
128,1.4111377269029617,0.05616695843636986,31.62475004196167,48.79242992401123,24.932844161987305,81.53580093383789,0.0
129,1.3665425568819045,-0.0013068113883491625,31.64074940681458,51.511599445343016,23.833943557739257,80.89697570800782,0.0
130,1.3310647904872894,-0.04349898966029282,31.652999687194825,48.83943824768066,23.05250301361084,80.20663948059082,0.0
131,1.3102740585803985,-0.062483735196292356,31.66675000190735,51.07875442504883,23.390719890594482,79.14651489257812,0.0
132,1.301690736413002,-0.05432071769610042,31.677250242233278,47.61477403640747,27.811966371536254,78.1094539642334,0.0
133,1.2933362752199173,-0.03826456796377893,31.681500339508055,49.25213680267334,32.35470008850098,77.6826286315918,0.03358687851577996
134,1.2808618307113648,-0.030318756215274283,31.69225058555603,51.470085525512694,33.831503295898436,78.0954574584961,0.2591757595539093
135,1.280594810843468,-0.017157496977597414,31.705749797821046,47.965811824798585,30.201464653015137,81.08701515197754,0.27947157323360444
136,1.2889492511749268,-0.0017674832059128474,31.719999313354485,55.77960939407349,29.64835157394409,82.85707817077636,0.6119277864694596
137,1.3271355301141738,0.036413891147822085,31.730749559402465,34.20329661369324,22.930402755737305,83.10249328613281,0.1422503106296062
138,1.3801232933998109,0.07789144087582824,31.74449987411499,56.759462642669675,22.930402755737305,83.10249328613281,0.0
139,1.4019058734178542,0.07801344320178027,31.755000114440918,52.289987850189206,22.930402755737305,83.10249328613281,0.0348441423848271
140,1.3863795876502991,0.03894066661596294,31.769000434875487,47.63553104400635,22.930402755737305,75.19866638183593,0.05513995587825772
141,1.3544495970010757,-0.010179440109641271,31.782500743865967,52.97374839782715,18.636141777038574,67.79275932312012,0.0
142,1.3223670154809952,-0.04871812416240569,31.797749757766724,45.80341854095459,21.90720386505127,71.849973487854,0.0
143,1.296922206878662,-0.06458731573075052,31.811249494552612,52.292429542541505,19.382173919677733,82.30368576049804,0.0
144,1.2804422229528427,-0.05984541242942208,31.81999969482422,47.92979230880737,24.18498182296753,85.43264617919922,0.0
145,1.2683492481708527,-0.04736083783209319,31.828499889373774,52.110500717163085,25.85409097671509,85.30800952911378,0.0
146,1.271210366487503,-0.023986639059148683,31.83324999809265,45.97252759933472,25.41208839416504,83.75205612182617,0.0
147,1.300584429502487,0.016045143284281915,31.84675030708313,47.570817947387695,23.614774036407475,81.85282039642334,0.0
148,1.3371684938669204,0.05032585700973863,31.85725054740906,56.554945373535155,23.687423706054688,79.47712554931641,0.0
149,1.3621173679828644,0.0627360026352107,31.868000793457032,49.113553524017334,23.687423706054688,79.1034927368164,0.01149497479200362
150,1.372798863053322,0.05411331364884966,31.87574987411499,47.47252731323242,23.960927963256836,78.48984985351562,0.030713135749101606
151,1.3492996007204057,0.011605596085428235,31.88624930381775,47.564713096618654,23.003052616119383,80.22662296295167,0.0
152,1.3168736904859544,-0.030339073739014528,31.896499538421637,50.599511814117434,20.47802186012268,81.05370712280273,0.0
153,1.2942518323659897,-0.04968556016683574,31.904249715805054,51.25213670730591,18.901098251342773,81.0810775756836,0.0
154,1.280251458287239,-0.05071378350257867,31.914749956130983,49.94017105102539,19.208790874481203,81.0810775756836,0.0
155,1.286812949180603,-0.026311135385185435,31.928500270843507,47.892551803588866,21.657508850097656,80.37837715148926,0.0
156,1.3119525760412216,0.011562132647668448,31.93925051689148,53.426129245758055,24.272893238067628,79.53013019561767,0.0
157,1.3431958973407745,0.0433996387291699,31.94975075721741,44.60256385803223,24.772893047332765,79.79573268890381,0.008621231094002715
158,1.3438062697649003,0.035418949415907196,31.957249546051024,50.117826557159425,23.05311346054077,81.07012405395508,0.0
159,1.320688509941101,0.0031965971094905276,31.967999267578126,55.348595809936526,22.543345642089847,81.18120098114014,0.0
160,1.3345362693071365,0.008882902489131055,31.978499507904054,46.72161159515381,21.96398096084595,81.38962326049804,0.0
161,1.3825266242027283,0.044418997596949304,31.98599967956543,51.32051286697388,22.917582750320435,81.76904029846192,0.0
162,1.3784447699785232,0.029013305227272156,31.999999952316283,48.16727714538574,29.056776237487792,81.03920879364014,0.0
163,1.3499862670898437,-0.0027278354857116797,32.01724987030029,45.13858366012573,30.744811058044434,77.98011779785156,0.0
164,1.3285851508378983,-0.025446112081408467,32.027749156951906,50.611721420288085,24.87667942047119,77.32182292938232,0.0
165,1.3143177688121797,-0.03942811833694573,32.03850059509277,53.96642198562622,23.454823398590086,78.70498447418213,0.0
166,1.2999359101057053,-0.043049624841660215,32.04899940490723,46.26617870330811,24.74847369194031,79.33652458190917,0.0
167,1.2903225600719452,-0.0343090127687901,32.06275072097778,53.36080598831177,23.557386445999146,80.17120189666748,0.0
168,1.308671835064888,-0.0027476244977151427,32.077751064300536,47.35836381912232,27.409036254882814,80.79190254211426,0.0
169,1.330301833152771,0.02209198698401445,32.09124994277954,46.50732593536377,25.46764373779297,81.3153263092041,0.0
170,1.3169499784708023,0.0077692010934697145,32.10199890136719,51.48229541778564,23.670940351486205,82.14272594451904,0.0
171,1.2930310994386673,-0.0155821963329799,32.11574964523315,51.92673950195312,25.995116233825684,81.82825088500977,0.0
172,1.2793740630149841,-0.027475207718089173,32.12950096130371,51.287545680999756,27.83394412994385,82.0074447631836,0.0
173,1.2826166570186615,-0.020746343652717717,32.1435001373291,46.879120922088624,28.214285612106323,85.38806552886963,0.0
174,1.2984099835157394,0.00146475677065609,32.15750026702881,48.69230766296387,32.692918920516966,86.90105819702148,0.0
175,1.3090533286333084,0.016212352761067396,32.16774854660034,47.59462747573853,30.03968300819397,87.43657474517822,0.0
176,1.2985625684261322,0.005561556956672552,32.17900009155274,55.934675979614255,27.964591407775877,87.1091178894043,0.0
177,1.2840662866830825,-0.010029906174167932,32.192749404907225,45.49816837310791,25.734432268142704,86.27857475280761,0.0
178,1.2837992548942567,-0.010906381264794556,32.203750133514404,54.81440773010254,25.630647659301758,86.76656398773193,0.0
179,1.2950910866260528,0.0005756403581471975,32.21750068664551,47.1147741317749,30.890109634399415,87.42224159240723,0.0
180,1.2969222009181975,0.003891761806153185,32.22799987792969,46.021367359161374,32.11233139038086,87.52735137939453,0.0
181,1.2825022161006927,-0.007502078144170757,32.238501358032224,50.87973146438598,31.28205108642578,87.37480010986329,0.0
182,1.2667470276355743,-0.020057098986580917,32.25274953842163,50.343101501464844,27.46520128250122,85.1229404449463,0.0
183,1.256256288290024,-0.02622033660300071,32.26674976348877,52.10927944183349,26.145298719406128,82.43439464569092,0.0
184,1.2546922326087953,-0.020736285066232027,32.277499198913574,46.91086673736572,29.133089065551758,80.36471099853516,0.0
185,1.276131471991539,0.0075939324378850705,32.28950023651123,49.03174619674682,30.598290348052977,78.60339889526367,0.0
186,1.333925899863243,0.06289391196332866,32.302499771118164,48.487789916992185,29.975579452514655,77.86670150756837,0.05226621292531488
187,1.4019821792840959,0.11149469055235384,32.316000366210936,49.40293035507202,29.963369369506843,77.82101440429688,0.03179078940302132
188,1.4298684507608415,0.10750262569636104,32.33325119018555,54.86507949829102,24.13736276626587,79.19134254455567,0.0
189,1.4197210639715194,0.06275157583877441,32.34524974822998,47.40354108810425,20.463979721069336,82.58775329589844,0.0
190,1.3895840376615525,0.004214310011957425,32.361750316619876,50.06776552200317,20.467032432556152,82.89352569580078,0.0
191,1.360400703549385,-0.039179679565131645,32.375250053405765,50.17216081619263,19.201465797424316,84.05217533111572,0.0
192,1.3366725713014602,-0.058096025511622386,32.39175014495849,46.379731273651124,17.460317611694336,83.27550506591797,0.0
193,1.3160725831985474,-0.05969482483342285,32.40650043487549,52.055555534362796,17.577533721923828,83.05876007080079,0.11171678379178045
194,1.3094729334115982,-0.042793214879929986,32.4239990234375,52.10927963256836,18.0463981628418,82.19178009033203,0.02263073120266198
195,1.32209997177124,-0.01258042201516214,32.437499046325684,47.8772894859314,19.843712615966798,81.21568145751954,0.0
196,1.3208792448043822,-0.003573945577954825,32.44524974822998,49.23321123123169,20.293041229248047,69.64005727767945,0.0
197,1.306611841917038,-0.011264810385182447,32.45899925231934,53.292429542541505,22.750916147232054,51.074077415466306,0.0
198,1.2910092353820801,-0.02143565141595895,32.4695011138916,44.871794891357425,23.27228355407715,48.36330089569091,0.012931846641004075
199,1.2776192635297776,-0.029479597508907263,32.48099975585937,51.415750885009764,25.181928730010988,58.45710372924805,0.0
200,1.2702566593885423,-0.02833215696737166,32.49125146865845,48.03540906906128,28.5225887298584,73.04534816741943,0.01724246218800543
201,1.2706000000238418,-0.01719885427737604,32.50474920272827,48.86080598831177,29.68131866455078,79.04682159423828,0.0
202,1.2783440500497818,-0.0016739117279939476,32.521249771118164,51.91636152267456,30.780219650268556,81.13928718566895,0.0
203,1.272507405281067,-0.0030440909200478605,32.53324947357178,47.09645910263062,27.32112350463867,83.32630157470703,0.008621231094002715
204,1.264915907382965,-0.007591278757899953,32.54749994277954,51.97008562088013,24.66178240776062,85.37747592926026,0.008621231094002715
205,1.257782205939293,-0.012312093353830232,32.561251163482666,49.36019487380982,28.147129821777344,85.62408599853515,0.016883244365453708
206,1.2524796187877656,-0.014732585917226926,32.57500076293945,51.11660537719727,31.283271503448486,85.70358028411866,0.04095084816217419
207,1.2430952072143555,-0.018597312178462687,32.58000183105469,47.72832727432251,31.427350330352784,85.71428680419922,0.00574748739600181
208,1.2509155601263047,-0.004413499336760643,32.58950023651123,50.49389476776123,30.86202621459961,85.71428680419922,0.0
209,1.2897122114896775,0.03420749427750701,32.59999856948853,48.84981689453125,29.01098823547364,86.38704490661621,0.0
210,1.3200018405914307,0.055217236932367034,32.61424989700318,51.449939250946045,23.647130489349365,88.79861831665039,0.0
211,1.3147755414247513,0.036953755281865536,32.624749946594235,48.437728786468504,21.294261932373047,90.20414657592774,0.0
212,1.2951292425394059,0.005974172499008982,32.638499641418456,53.07081823348999,19.85286912918091,91.01385917663573,0.0
213,1.2813196301460266,-0.01646882633212949,32.64274997711182,46.741147899627684,19.77594666481018,89.82421798706055,0.0
214,1.2709433317184449,-0.028162830229848574,32.650001525878906,48.87484750747681,18.391331672668457,88.02624988555908,0.0
215,1.273499259352684,-0.01805016888538371,32.65725030899048,49.89682569503784,21.318681716918945,86.22838439941407,0.0
216,1.2932981252670288,0.00904475962815919,32.66774854660034,47.41514043807983,24.78754644393921,83.42853660583496,0.0
217,1.2940229386091233,0.011454215936828355,32.68049955368042,54.664835166931155,23.53113536834717,79.82539730072021,0.004310615547001358
218,1.2807474046945573,-0.0017766315213521,32.689998626708984,47.3614161491394,24.28815612792969,77.72196350097656,0.030174308829009504
219,1.274910768866539,-0.00792389269918199,32.69950065612793,52.490842247009276,25.066544914245604,78.82621421813965,0.0
220,1.2687688708305358,-0.014455616474151575,32.70699958801269,48.303418731689455,24.566545486450195,79.57559967041016,0.0
221,1.2603381395339965,-0.018930870154872492,32.71900043487549,48.20146522521973,24.63980484008789,80.80983123779296,0.02298994958400724
222,1.259880381822586,-0.01210891376249488,32.73199996948242,51.938339710235596,29.380951929092408,82.9342025756836,0.0
223,1.2593844324350356,-0.007206339936237735,32.7425012588501,43.926129531860354,27.63675203323364,84.6175615310669,0.0
224,1.2659840613603592,0.002700631518018775,32.752999496459964,53.11721601486206,27.314408349990845,84.07712154388427,0.0
225,1.316110721230507,0.049755733320489465,32.76374912261963,52.43040285110474,31.72161102294922,81.2900463104248,0.0
226,1.381076991558075,0.09701762981712815,32.77100028991699,46.921856021881105,31.946275234222412,79.43189373016358,0.0
227,1.389812907576561,0.07955856528133151,32.78149909973145,48.90293016433716,24.315628862380983,79.91834316253662,0.0
228,1.360477003455162,0.027016404614550925,32.79549999237061,52.614163398742676,23.42551808357239,80.32977752685547,0.0
229,1.3337351590394975,-0.01668104264681456,32.809501266479494,47.893162441253665,25.2991455078125,79.53394165039063,0.0
230,1.3222907066345215,-0.03584262756630775,32.813500785827635,50.28693571090698,18.398047256469727,80.2364953994751,0.0
231,1.3269066303968429,-0.02564198705367739,32.82099990844726,51.30830297470093,23.332723474502565,81.4571376800537,0.0
232,1.3248466372489927,-0.01493037382606412,32.83000183105469,50.34188022613525,26.883394527435303,82.85867214202881,0.0
233,1.3113040566444396,-0.017017055139876856,32.83825044631958,45.770451831817624,27.399267196655273,83.30455684661865,0.0
234,1.3100451618432998,-0.010700687736971262,32.842999649047854,50.22283277511597,29.765567111968995,82.78806762695312,0.0
235,1.3442640423774719,0.023647165985312253,32.85024852752686,53.24420003890991,34.40903539657593,81.2066089630127,0.0
236,1.3642155230045319,0.036681873910129,32.86000061035156,45.68070840835571,34.14896125793457,80.84525852203369,0.0
237,1.3463621944189073,0.012995691399919402,32.867749309539796,53.215506649017335,32.48351716995239,81.54977626800537,0.0
238,1.325457015633583,-0.011284767920005784,32.878250694274904,48.470085334777835,32.11233139038086,81.8330924987793,0.0
239,1.3090914636850357,-0.02942270073108371,32.88899955749512,47.60134334564209,29.85592155456543,82.21505279541016,0.035921796225011314
