sec,SCL,SCR,BVP,PVA,HR,MOTION
0,2.1765038043260576,0.0010000000474974,59.2759464263916,0.0,30.0,1.4345368538051844
1,2.400318908691406,0.0010000000474974,50.36385841369629,0.0,30.0,0.1735022725537419
2,2.443960404396057,0.0010000000474974,50.58547010421753,9.636141920089722,43.709880352020264,0.17206540126353498
3,2.487105941772461,0.08170404680713542,51.858974361419676,13.66666669845581,69.05388088226319,0.02442682161927221
4,2.4457152128219604,0.18356384682119822,48.41514043807983,23.447496604919433,87.18254203796387,0.0
5,2.271988594532013,-0.14510336439125238,48.03724069595337,21.482294940948485,95.53899192810059,0.00574748739600181
6,2.1770760357379912,-0.2112593468278646,50.51648359298706,24.034799098968506,98.11937713623048,0.0
7,2.1620838224887846,-0.17567575909197325,49.41391954421997,25.924908447265626,97.22237758636476,0.0
8,2.161511570215225,-0.11429169625043864,50.02686195373535,24.38217306137085,95.49302921295165,0.04310615547001358
9,2.209845268726349,-0.007384592492599047,51.42857131958008,24.305860185623168,95.95328731536866,0.004310615547001358
10,2.144306778907776,-0.0384798178216442,49.114163398742676,25.256410694122316,96.26623668670655,0.0
11,2.0315027236938477,-0.12568289525806897,49.99572677612305,23.888888835906982,95.92568588256837,0.00574748739600181
12,1.9530320107936858,-0.16807855963706966,50.83333339691162,23.768009614944457,98.26178646087646,0.07256202884018415
13,1.8972594380378722,-0.17716505229473112,49.39072065353393,23.703296375274657,100.02470016479492,0.03789749536663291
14,1.8620868533849717,-0.1504281889647245,51.561660575866696,21.886447143554687,99.23605728149415,0.03735866807401177
15,1.826685380935669,-0.11723686214536425,49.15873022079468,22.217337942123415,101.45461673736573,0.031611180678009956
16,1.796929833292961,-0.09207439273595805,47.81868143081665,21.641636657714844,101.62259788513184,0.0
17,1.8273720532655715,-0.02487738279742187,50.4291823387146,24.973747968673706,100.95921592712402,0.0
18,1.877994629740715,0.03879836099222297,51.36996335983277,24.596458530426027,99.21529331207276,0.0
19,1.8501846432685851,0.012787276785820692,48.90537214279175,24.189865589141846,97.573455619812,0.0
20,1.8025376111268998,-0.03084324258379633,50.46520156860352,23.389499282836915,97.25307998657226,0.0
21,1.780716872215271,-0.0486234902404248,50.77716722488403,23.65995101928711,97.73992767333985,0.0
22,1.766182440519333,-0.056850955728441434,47.89621486663818,25.2368745803833,97.39631252288817,0.0
23,1.7387920677661897,-0.06342706922441715,50.48412733078003,25.46703290939331,96.08664264678956,0.0
24,1.7144154220819474,-0.058860879763960774,48.359584712982176,24.322343826293945,94.97856025695799,0.0
25,1.6946928322315216,-0.05449856091290707,50.65934047698975,23.630037307739258,94.55151252746582,0.0
26,1.6710791260004043,-0.05661917263641949,48.81807088851929,25.23504319190979,94.85286655426026,0.0
27,1.6529587626457214,-0.052419197559356666,48.38949909210205,24.71794891357422,94.64847908020019,0.007184359245002263
28,1.6409421175718308,-0.043183982279151656,51.29120864868164,24.080586242675782,94.49192962646484,0.0
29,1.6376232355833054,-0.028968699183315016,51.62881555557251,23.354090023040772,94.74276542663574,0.0
30,1.645901358127594,-0.008221239619888323,48.01831493377686,23.070818042755125,96.25766563415526,0.07543577253818505
31,1.65650654733181,0.009025700659185487,48.42979211807251,21.208791494369507,98.33663368225098,0.002873743698000905
32,1.699194312095642,0.048690590448677504,47.79181928634644,25.413919258117676,97.51623458862306,0.024067603796720485
33,1.732612082362175,0.06773403622210022,50.018925476074216,24.22771644592285,92.8843927383423,0.007543577253818505
34,1.7502364993095398,0.06444846261292693,49.95360221862793,19.63614206314087,88.23136978149414,0.0
35,1.7451628148555756,0.03755089542828495,50.99267416000366,13.517704629898072,86.53027877807617,0.0
36,1.7155598640441894,-0.008178960842087668,49.64041519165039,10.079365110397339,86.8967945098877,0.01724246218800543
37,1.690725427865982,-0.038135445490479404,50.9774112701416,10.501831674575806,89.3943702697754,0.019397770240902886
38,1.678098377585411,-0.04353764066472642,48.26007318496704,9.518315052986145,91.78580493927002,0.0
39,1.6887035757303237,-0.02098680890630924,49.41514024734497,9.996336960792542,97.0614366531372,0.0
40,1.688436535000801,-0.009377607179339924,49.94017086029053,11.615994834899903,97.93755149841309,0.0
41,1.6686758071184158,-0.018958906130865146,49.305250358581546,11.783271932601929,97.12091979980468,0.0
42,1.6526917278766633,-0.02618026249110696,50.37423686981201,12.256410098075866,99.62940177917481,0.0
43,1.6364787817001343,-0.034724940499290785,49.93650779724121,15.648351335525513,101.22390155792236,0.0
44,1.6215247064828873,-0.03897243225947018,49.301587200164796,16.44932794570923,100.26462287902832,0.0
45,1.608363601565361,-0.036907263565808514,49.616605567932126,15.791208839416504,98.01765632629395,0.0
46,1.5987502604722978,-0.031382977776229344,50.4169716835022,15.84371190071106,97.755952835083,0.0
47,1.5901287764310836,-0.027016689116135202,49.584249114990236,18.29059791564941,98.00119972229002,0.0
48,1.5788750827312468,-0.026186330290511213,49.18986597061157,18.20329656600952,98.03921508789062,0.01149497479200362
49,1.5685369461774825,-0.02555248923599715,50.26923084259033,18.869963359832767,97.107173538208,0.0
50,1.5580080509185792,-0.02578315506689246,48.41208791732788,21.028693199157715,95.81044101715088,0.0
51,1.551599159836769,-0.022434777067974167,50.38583650588989,21.47496967315674,92.30435943603514,0.02765978332608936
52,1.5443891733884811,-0.02038649334572251,50.10683746337891,21.098901748657227,88.78903160095214,0.01724246218800543
53,1.5392773300409317,-0.016883296961896072,49.80891361236572,19.843711948394777,89.03701820373536,0.0
54,1.5352336078882218,-0.01369998443406068,48.00549440383911,21.196581840515137,94.35455322265625,0.0
55,1.5270699262619019,-0.015518552903085903,51.283882522583006,22.24664306640625,95.5414047241211,0.0
56,1.5182958394289017,-0.01785688200034196,50.8290599822998,21.941392278671266,95.58733787536622,0.0
57,1.5076143771409989,-0.02158832931891079,47.26923084259033,20.67643461227417,96.29297485351563,0.0
58,1.4983825176954269,-0.023025309108197632,50.238095092773435,23.114164113998413,97.07441444396973,0.0
59,1.4904476940631866,-0.022308944258838836,50.02991428375244,22.989010620117188,96.57095432281494,0.0
60,1.4816354930400848,-0.02212917716242367,48.549450397491455,22.236873626708984,95.87164096832275,0.0
61,1.4735099345445632,-0.021187200210988463,51.36630048751831,21.76251473426819,96.61376152038575,0.0
62,1.466719564795494,-0.019348179781809388,49.90109910964966,22.434676074981688,98.01558418273926,0.0
63,1.4619129091501235,-0.016532525513321093,47.59706945419312,21.31013426780701,100.32480239868163,0.018679334037005883
64,1.4606921643018722,-0.010973281681071905,49.210622501373294,21.699023294448853,101.01949710845948,0.0
65,1.470801416039467,0.00338100154294805,49.10500640869141,24.44444465637207,98.90507221221924,0.0
66,1.4752647548913955,0.008339161076582922,50.05250310897827,23.71428627967834,96.00943107604981,0.018679334037005883
67,1.464087337255478,-0.0028700456779915677,50.94139175415039,23.27472553253174,95.03493118286133,0.0
68,1.452223265171051,-0.013468909834045865,48.50671558380127,21.965811729431152,95.31380081176756,0.0
69,1.4424192160367966,-0.02054981021210544,51.253968238830566,22.77472448348999,96.75979709625243,0.039873193204402906
70,1.4367351442575456,-0.0211158296093344,51.184370803833005,20.07814350128174,98.47893753051758,0.038975148089230034
71,1.4334162473678589,-0.01647508826572441,48.959706974029544,20.228327465057372,99.42960968017577,0.01149497479200362
72,1.4318139880895615,-0.010526971681974761,47.79731369018555,21.846154403686523,102.10043029785156,0.0
73,1.4385280877351763,0.0008675798155309125,49.99328441619873,22.94322419166565,102.00541191101074,0.0
74,1.4383373439311982,0.0020655674557928977,48.02747220993042,22.307692527770993,98.00638961791992,0.0
75,1.4313180804252625,-0.003939894837094425,51.23565320968628,20.0360200881958,95.51414165496826,0.0
76,1.4263206869363785,-0.007748011045623518,49.9242977142334,18.590964841842652,95.63186836242674,0.00574748739600181
77,1.4269310414791108,-0.005722040469117879,48.538461685180664,20.940170669555663,98.65601711273193,0.0
78,1.4406643956899643,0.008181885175872549,50.099511337280276,21.963370180130006,99.9913969039917,0.00574748739600181
79,1.4432966262102127,0.010114936146419446,49.909035205841064,21.20390682220459,98.45780220031739,0.004310615547001358
80,1.43425549864769,0.0002692707668756825,46.41697187423706,19.970695114135744,98.68782196044921,0.022271513752639274
81,1.4192251354455947,-0.014166181359905692,48.936507892608645,21.758242225646974,99.5655029296875,0.0
82,1.4087725460529328,-0.022269825357943723,51.22100114822388,21.911477851867676,97.87100715637207,0.018679334037005883
83,1.4040039896965026,-0.02138282055966554,50.40537252426147,20.811966133117675,97.42276573181152,0.0
84,1.4102221816778182,-0.007769928865309304,45.99572668075562,20.44688673019409,98.93048076629637,0.012931846641004075
85,1.443716236948967,0.0287410071585327,49.8760684967041,20.47313771247864,100.68396701812745,0.0
86,1.5131840020418168,0.08762680189684029,48.260683631896974,24.043956756591797,97.24557037353516,0.0
87,1.5377132534980773,0.08846914488822216,51.50854721069336,18.966422891616823,93.13653736114502,0.05819330923259254
88,1.5182195484638215,0.0444285895209759,49.783882999420165,11.740537357330322,90.52144317626954,0.10578968841582533
89,1.4987258523702622,0.004654146269967875,50.09096441268921,7.462759399414063,92.08221893310547,0.062144707143306666
90,1.5005950957536698,-0.008050388810806875,49.42857160568237,6.950549423694611,94.37868976593016,0.03286844398826358
91,1.616069522500038,0.09431255946401502,48.589743518829344,7.179487228393555,95.14003486633301,0.12877963725477454
92,1.8707083284854888,0.30596499666571614,51.77472524642944,7.508546996116638,94.99263401031494,0.10812460388988251
93,2.057901230454445,0.4042871378362179,44.9065936088562,9.059828758239746,93.25349254608153,0.34341236464679237
94,2.1830652713775636,0.4049829877912998,53.8608057975769,9.059828758239746,90.02250671386719,0.5373900573700666
95,2.2547837793827057,0.3311116144061088,49.31746034622192,16.86629984378815,75.04446411132812,0.19936596173793072
96,2.3429822623729706,0.2699219487607479,51.90659370422363,14.285714149475098,68.84681701660156,0.13147377017885442
97,2.3825037479400635,0.18223713915795084,47.21733798980713,14.285714149475098,68.84681701660156,0.12285254206508393
98,2.255127102136612,-0.015608974476344888,50.45360202789307,13.028082847595215,74.78134841918946,0.24372938424348828
99,2.0743431001901627,-0.20253445804119105,52.39438343048096,8.369963109493256,106.44802665710449,0.09447432383894917
100,1.9441053509712218,-0.2888403378427028,47.69230766296387,7.838827610015869,114.28571319580078,0.21445312239229675
101,1.862506479024887,-0.29008990898728365,48.769841289520265,9.10866892337799,112.86360549926758,0.05388269312679765
102,1.8160802006721497,-0.22861318625509736,49.65995101928711,12.954822897911072,104.49698085784912,0.02873743698000905
103,1.7999054044485092,-0.1402029255405068,49.15995121002197,13.65934066772461,100.4288101196289,0.0
104,1.752029475569725,-0.11283436473459,49.94017095565796,13.65323565006256,98.0321340560913,0.0
105,1.6854609817266464,-0.12191591616719957,50.13614158630371,13.207570505142211,97.68150901794434,0.0
106,1.6344950675964356,-0.1250829473137855,48.7081805229187,14.168498039245605,98.91685791015625,0.0
107,1.5953550815582276,-0.12007271666079752,50.58791189193725,14.432234287261963,98.3628406524658,0.0
108,1.5598010152578354,-0.1095505081117153,50.29120874404907,14.344322109222412,99.49998168945312,0.0
109,1.5248191833496094,-0.09697832372039554,48.44871816635132,16.69963369369507,101.33916110992432,0.0
110,1.4971236288547516,-0.08315671123564239,50.57142877578735,17.186812973022462,100.63841247558594,0.0
111,1.4773629009723663,-0.0685477443039417,49.984127044677734,16.97374858856201,100.74996662139893,0.01149497479200362
112,1.4587465912103652,-0.05804247297346589,49.21733837127685,18.796702766418456,101.53172149658204,0.0
113,1.4394055038690567,-0.051759330090135294,49.73748464584351,18.22100114822388,100.8807258605957,0.0
114,1.4299829244613647,-0.039123332221060916,50.466422653198244,17.73015913963318,100.59849872589112,0.0
115,1.4574495643377303,0.00215487346576992,50.746642398834226,19.416971969604493,101.5275951385498,0.0071843594312667805
116,1.491096204519272,0.037525211740285114,47.84615364074707,18.689866161346437,101.90651893615723,0.010058102943003168
117,1.4836191982030869,0.025787552027031722,49.79426107406616,18.722832489013673,101.34792213439941,0.024426821433007694
118,1.4716406762599945,0.008181624987628268,50.276556968688965,20.310135078430175,100.03015213012696,0.0
119,1.4762566059827804,0.00492474617785769,50.07081813812256,20.506715774536133,97.41121959686281,0.012931846641004075
120,1.481101432442665,0.0017383633632562022,49.57509174346924,19.353480291366576,95.67659206390381,0.0
121,1.4736625462770463,-0.00541024245030709,48.253968238830566,19.379732131958008,97.44713745117187,0.04777598939836021
122,1.5320673257112503,0.05181979164481158,48.85103778839111,20.457875967025757,99.22609233856203,0.05891174469143148
123,1.62373728454113,0.12207367718219755,50.72161159515381,19.233210754394534,98.47391357421876,0.0
124,1.6287728637456893,0.0953918650746345,49.923687267303464,17.472527694702148,99.07619056701661,0.0
125,1.6268273025751114,0.06454470418393607,48.817459964752196,17.177655696868896,101.07931385040283,0.012931846641004075
126,1.6271324932575226,0.03428218036424364,50.501220893859866,16.14041543006897,101.7900405883789,0.012931846641004075
127,1.601382490992546,-0.015519124702404907,50.03846101760864,14.473138165473937,102.57664222717285,0.002873743698000905
128,1.5698721289634705,-0.04738407190889114,45.49511620998383,14.057387232780457,102.8020076751709,0.13488634079694745
129,1.5537354618310928,-0.049476113822311145,46.633088720915836,20.65933990478516,101.67038955688477,0.5343367140740156
130,1.420979952812195,-0.15862664002925156,62.610500652622434,20.65933990478516,99.5850601196289,0.3461064957082271
131,1.404881438612938,-0.12182420346653085,48.7521369934082,20.65933990478516,99.5850601196289,0.5763652235269546
132,1.8454542607069016,0.31696515735238784,42.58852243423462,20.65933990478516,99.5850601196289,0.1912835609167814
133,2.054353454709053,0.44873862266540526,47.2057388305664,29.192308282852167,99.34261665344238,0.0540623035281896
134,2.1698278844356538,0.4526805765926838,47.86080560684204,14.513431239128114,98.52498397827148,0.00574748739600181
135,2.173757141828537,0.3214962434023618,50.20268630981445,15.87057375907898,98.5891321182251,0.031072353944182368
136,2.0767464220523832,0.07189175118692218,47.18986587524414,15.189254760742188,94.48499450683593,0.017422071099281296
137,1.9642475694417953,-0.11939300941303368,51.700244140625,15.048840117454528,89.83771686553955,0.09932376537472004
138,1.9056138873100281,-0.16937804780900476,50.76678857803345,15.75457854270935,89.16975059509278,0.09052292592823502
139,1.9964827477931977,-0.042454121579066834,47.642857265472415,15.584859848022461,92.21312255859375,0.026582128927111592
140,2.10242013335228,0.0872362938709557,50.90476188659668,14.71428554058075,93.81932506561279,0.01724246237426995
141,2.0384838402271273,0.03384564056759695,50.362637519836426,17.094017028808594,95.23809814453124,0.0395139759406447
142,1.9938123643398284,-0.009504133516747924,50.54761929512024,17.094017028808594,95.33333587646483,0.18356037549674506
143,1.956350901722908,-0.0570053343661129,49.36752083301544,20.07203893661499,95.08053016662598,0.46500763967633246
144,1.922208321094513,-0.09054210465401405,49.802808499336244,61.88339281082153,81.9442663192749,1.1437499672174454
145,1.9971694082021714,0.008216516845277506,51.15567770004272,74.76129112243652,73.93665447235108,0.8003376103937626
146,2.179174166917801,0.18684890158474443,47.51648321151733,55.203905487060545,71.31848907470703,0.13596399705857035
147,2.245971554517746,0.21135601140558716,49.31257619857788,21.20573902130127,79.00875186920166,0.3606548309326172
148,2.2571108043193817,0.16622629724442956,52.80830268859863,18.949938678741454,88.54536685943603,0.06555727813392873
149,2.1446501076221467,-0.0008176322095096101,38.99450567374006,17.80219841003418,92.52120208740234,0.9962910033762455
150,2.045350509881973,-0.12726243454962968,52.45726456642151,16.318681478500366,93.66321372985841,0.9301949068903923
151,2.1201971411705016,-0.047807285210001264,32.50061061587185,42.41025705337525,94.58244590759277,2.096395955979824
152,2.2659611761569978,0.10335091333836315,48.901709365844724,57.899879455566406,94.78672790527344,0.33371347654610867
153,2.4180577993392944,0.2383081033825874,43.98473706245422,57.899879455566406,94.78672790527344,0.09106175210326903
154,2.5009537041187286,0.2671159610152244,68.15995111465455,57.899879455566406,94.78672790527344,0.04166928399354216
155,2.390972626209259,0.08122404046298466,59.73199071884155,53.20207719802856,82.58398056030273,0.012931846641004075
156,2.2360530376434324,-0.12144211577251547,55.38766736984253,46.965812683105476,67.49180698394775,0.011674583703279482
157,2.1220282554626464,-0.23052159696817398,46.00732593536377,44.669107055664064,56.13810806274414,0.009878493845462787
158,2.0508438289165496,-0.249226688221097,53.30708179473877,45.22588348388672,53.09258556365967,0.0
159,1.9996490329504013,-0.20965895354747768,52.6556782245636,46.44932670593262,63.75833511352539,0.03125196322798727
160,1.9492934942245483,-0.1634023625403642,43.76007342338562,48.22161130905151,81.32760715484619,0.05980979129672045
161,1.9036301732063294,-0.13229381199926135,53.341269731521606,49.07875394821167,90.04144325256348,0.030174308829009504
162,1.866130557656288,-0.11179985627532003,48.89072051048279,49.34554414749146,93.28148555755615,0.007184359245002263
163,1.8344294548034668,-0.09698054417967794,49.676434421539305,49.77289352416992,94.89217987060546,0.037358668260276284
164,1.8079165041446685,-0.08285643402487036,51.08363885879517,51.009157371521,95.45872993469239,0.0
165,1.7805642873048781,-0.07435122281312939,45.73199052810669,50.21367473602295,95.94448814392089,0.0
166,1.7483672589063644,-0.0745291350409388,78.22771663665772,52.07326049804688,95.6861728668213,0.4921285953372717
167,1.6436887741088868,-0.14315164666622873,32.1031746219378,52.18559265136719,95.6175308227539,1.0616686552762986
168,1.5274895399808883,-0.20396111123263833,46.672771466244015,52.18559265136719,95.6175308227539,0.37592159546911713
169,1.6091265439987184,-0.0682440541029791,43.59340654611587,54.21856088638306,95.6175308227539,1.458604522049427
170,1.8416013032197953,0.17857705531641838,47.468253993988036,54.268010997772215,94.29165267944336,0.10219750870019192
171,2.0598467975854873,0.35745287537574766,57.523198795318606,61.42857131958008,92.86514015197756,0.07884834241122
172,2.1325190007686614,0.3489817038178444,48.32783842086792,42.872404098510735,100.4213935852051,0.10453242603689425
173,2.0775093853473665,0.18636524546891448,56.79059839248657,44.30402898788452,101.78571681976317,0.02298994958400724
174,2.0074312567710875,0.019015769381076096,51.89987754821777,45.45909729003906,100.22080154418946,0.02298994958400724
175,1.9632175654172896,-0.0778558247722685,43.272283267974856,45.76312522888183,98.53861198425292,0.06555727720260617
176,1.9238486915826798,-0.11344742253422732,53.141025590896604,44.60195379257202,98.35513896942139,0.08172208610922091
177,1.8951612919569016,-0.10200420580804344,48.462759494781494,44.25213518142701,98.97342319488526,0.05226621329784388
178,1.8679998129606248,-0.08313863873481744,46.217948818206786,43.15079288482666,99.01275119781495,0.022630731761455518
179,1.842783898115158,-0.0715870469808578,52.09890155792236,43.77655668258667,97.82959079742432,0.03412570655345913
180,1.820467233657837,-0.06322700595483179,49.5305253982544,42.730158996582034,97.10323181152344,0.03556257858872411
181,1.7930768787860871,-0.0637495400384068,47.70512809753418,42.9584867477417,97.15100860595702,0.06555727832019323
182,1.7624439269304275,-0.06796643994748588,52.42124528884888,41.99267425537109,98.02716979980468,0.04328576475381847
183,1.7374187409877777,-0.06662207711488005,51.22100172042847,42.41391839981079,99.7713493347168,0.07489694450050587
184,1.7140339344739914,-0.06420481624081728,46.4297926902771,42.08302803039551,101.2408348083496,0.09627041146159167
185,1.6785943120718003,-0.07361912112683053,74.58852245807648,40.89438199996948,102.35730743408202,1.2899516740813852
186,1.5176091700792314,-0.19369018189609047,32.08241776837967,40.92795944213867,102.47651672363278,1.1324346020817757
187,1.4590517789125443,-0.18890089150518177,14.630647118249907,40.92795944213867,102.47651672363278,0.639048732817173
188,1.6936246812343598,0.08316303759347646,54.198412847518924,40.92795944213867,102.47651672363278,0.15051232185214752
189,1.9893108934164048,0.3538766074925661,70.80952434539795,40.92795944213867,102.47651672363278,0.08154247794300314
190,2.176007878780365,0.4606333844363689,56.19719152450561,41.03540802001953,102.58207244873047,0.01149497479200362
191,2.157010096311569,0.32424478307366367,50.56959705352783,41.417583274841306,102.99329051971435,0.02640252020210025
192,2.0540482819080355,0.09295848490874045,49.795482540130614,41.03479814529419,100.24714279174805,0.035203359276056265
193,1.990951257944107,-0.06029229679843408,48.21672797203064,45.697190856933595,93.03779830932618,0.02155307773500679
194,1.9584490478038787,-0.11723763365298508,50.39865684509277,47.33577537536621,88.72835540771484,0.02442682180553673
195,1.918012022972107,-0.12519232966005797,51.8913311958313,46.0384614944458,86.70397968292237,0.0
196,1.8866160988807679,-0.09995616711676117,47.14774098396301,45.52869338989258,90.32897186279297,0.029276263900101157
197,1.8774224042892456,-0.06513552088290449,77.9932846069336,47.10622596740723,90.87759780883788,0.21104055084288115
198,1.8430509328842164,-0.06808442194014781,6.748473700182513,48.522586822509766,90.36144256591795,0.14638131670653817
199,1.8411816656589508,-0.041760170618363145,56.07203903198242,48.522586822509766,90.36144256591795,0.1232117604464292
200,2.0017853289842606,0.1245924223680049,67.69658126831055,48.80830116271973,89.28053665161131,0.20295814406126733
201,2.1734137892723084,0.2557925403118133,34.207570309937,59.9511604309082,75.9493637084961,0.23618580568581815
202,2.1854686081409453,0.20575207993388173,33.248473416734484,59.9511604309082,75.9493637084961,0.04328576475381847
203,2.1617404520511627,0.11944072712212798,71.76495695114136,59.9511604309082,75.9493637084961,0.14512405358254904
204,2.207213056087494,0.09616667330265041,53.6398042678833,59.9511604309082,75.9493637084961,0.1183623149991035
205,2.288583034276962,0.10893676970154043,58.00122128771618,51.80830268859863,72.16302528381348,1.231937973946333
206,2.243263053894043,0.029867435472988257,38.89072023639456,47.80280799865723,69.0591492652893,1.1444683756679297
207,2.24642933011055,0.025448458777827886,24.791819146322087,52.478633880615234,53.2623176574707,0.8874479494988918
208,2.3716315269470214,0.12214451376348726,61.94749643802643,63.1159948348999,48.7242322921753,0.18535646423697466
209,2.3726615428924562,0.08211312741041177,59.47435874938965,71.81929016113281,45.0112533569336,0.11279443819075816
210,2.425191509723663,0.10790987759828563,53.401098823547365,71.81929016113281,45.0112533569336,0.1108187418431043
211,2.463950002193451,0.10970758702605961,46.721001052856444,71.81929016113281,45.0112533569336,0.19631261192262167
212,2.3549607694149017,-0.03698538707394618,56.28693513870239,75.62698440551758,41.493267726898196,1.329645249247551
213,2.2705770909786223,-0.11986298691481348,59.40842475891113,76.43467712402344,40.74702835083008,0.11153717488050459
214,2.36060671210289,-0.013172402913915002,14.937118519982324,76.43467712402344,40.74702835083008,0.8989429339766503
215,2.187643051147461,-0.16978009571321304,57.481685400009155,76.43467712402344,40.74702835083008,0.44507104754447935
216,2.077585664391518,-0.2090437844395637,44.7289378141053,62.00549449920654,40.08989477157593,0.2106813302263617
217,1.9742042392492294,-0.23331111446022984,66.53235640525818,57.19169692993164,39.64684524536133,0.09195979796349997
218,2.2329248964786528,0.07007038353622189,59.29426093101502,64.15506687164307,38.49119939804077,0.8897828802466392
219,2.0737327188253403,-0.07118417932651935,52.21855936050415,76.84981536865234,45.749141693115234,0.32850481420755384
220,1.8805887073278427,-0.19053941145539277,43.62942590713501,76.84981536865234,45.749141693115234,0.29563637152314176
221,1.916524240374565,-0.11260278979316349,38.271062350273134,76.84981536865234,45.749141693115234,1.523622962832451
222,2.0096820086240768,-0.00929956172112725,59.524419975280765,75.24603366851807,47.84895210266113,0.09303745180368421
223,2.032380187511444,0.024653245497029245,49.20756998062134,75.11599731445312,49.21820068359375,0.2882724087685346
224,2.0651112258434297,0.09043954424560069,52.414529991149905,71.8101363658905,49.601951122283936,0.2487584330141544
225,2.0376827299594877,0.039068009878974394,46.08974380493164,30.037850856781006,50.29813690185547,0.10417320877313611
226,1.980613112449646,-0.04042457945179191,50.8778998374939,28.299755144119263,50.850862407684325,0.016164808720350258
227,1.9453260898590088,-0.07499916218221184,47.44810724258423,23.29792375564575,62.7783881187439,0.0287374375388026
228,1.9033631414175034,-0.09669171757996078,47.18437118530274,21.80708122253418,67.11409759521484,0.028198610059916945
229,1.8596453756093978,-0.10663397200405592,47.55006113052368,16.197802186012268,81.12426681518555,0.0
230,1.8197805762290955,-0.10256017986685032,49.64529914855957,11.045177125930788,92.4477165222168,0.0
231,1.7855235457420349,-0.09630894046276803,49.560439586639404,10.732600688934328,97.18274669647215,0.0
232,1.7574465185403825,-0.08606824185699222,44.07631259560585,10.20451774597168,99.53444557189941,0.12339136302471161
233,1.732993558049202,-0.07447976097464558,70.2820513010025,11.39743604660034,101.78635616302492,1.3801153495907783
234,1.719832456111908,-0.0561465409584343,38.91391950850375,11.623931884765623,102.0408172607422,0.4017852857708931
235,1.7567216962575913,0.002087383894831878,42.705128356907515,30.27594757080078,103.57143020629883,0.563253752142191
236,1.845530566573143,0.09109243908897038,30.318070557853208,73.79731750488281,108.79120788574218,1.2296030610799789
237,1.9333475649356842,0.1552684854716062,32.411477690935136,73.79731750488281,109.89010620117188,0.5086526326835156
238,1.9922864437103271,0.1667116593569517,59.35164813995361,73.79731750488281,109.89010620117188,0.2388799399137497
239,2.009262377023697,0.13216011524200436,95.56898651123046,73.79731750488281,109.89010620117188,3.5729613214731217
240,2.2475356221199037,0.2890962246805429,46.2435897231102,73.79731750488281,109.89010620117188,1.1460848778486252
241,2.2439115822315214,0.19360411763191224,31.501221045851707,73.79731750488281,109.89010620117188,0.11674583498388522
242,2.241927886009216,0.12133189886808396,46.139804697036745,73.58669395446778,105.747269821167,0.03933436721563336
243,2.164792317152023,-0.0014403459450477427,47.747253036499025,38.00976848602295,100.15464096069337,0.051008951291441874
244,2.0641193985939026,-0.12775765825062987,51.776556968688965,38.18803329467774,97.72962589263916,0.037717886082828014
245,2.0377209126949305,-0.13563469927757976,48.988400554656984,37.75946235656739,96.63008861541746,0.052445821091532674
246,2.011093482375145,-0.11596605479717251,48.28937711715698,38.175213909149164,97.80048274993896,0.05406230278313155
247,1.9535279393196106,-0.12156234197318552,51.69597043991089,37.592795085906985,97.130855178833,0.0
248,1.900997945666313,-0.11733508966863151,48.83943824768066,36.221612548828126,98.45763511657715,0.0
249,1.8507568567991257,-0.12057929020375009,46.60439548492432,36.406594371795656,100.75566864013672,0.0
250,1.8087176144123078,-0.11959020104259248,50.775946617126465,37.728937530517584,99.42704010009767,0.0
251,1.764961701631546,-0.11508038416504854,47.793651008605956,36.22527437210083,97.75272426605225,0.022630731761455518
252,1.7326120764017106,-0.09992994386702772,24.882783890748396,34.96947479248047,97.17388591766357,0.03843632154166696
253,1.7501220732927323,-0.04456579708494239,73.36263718605042,34.96947479248047,97.1659927368164,0.015805590339004978
254,1.765228745341301,-0.006771485687931955,55.5842490196228,34.96947479248047,97.1659927368164,0.00574748739600181
255,1.7423779964447021,-0.014760718890465738,50.420635032653806,33.299147033691405,97.01675071716309,0.012931846641004075
256,1.7141102313995362,-0.031618542969226796,52.37179474830627,41.159950733184814,96.94034576416014,0.002873743698000905
257,1.6866435706615448,-0.04981603408232329,44.85470094680786,47.95482139587403,96.85230255126952,0.008621231094002715
258,1.6688665509223939,-0.05540128136053678,51.44383382797241,46.46764450073242,97.56147727966308,0.053523477166891056
259,1.6545991271734237,-0.04963282514363523,51.52686233520508,48.99084348678589,97.92527809143066,0.02765978332608936
260,1.6375469148159028,-0.044870055373758044,53.90598301887512,51.63309020996094,97.70498981475829,0.035023750364780414
261,1.641552472114563,-0.02272506789304311,47.152624940872194,49.49328498840332,96.67442474365235,0.7913571625947953
262,1.6534546673297883,-0.0006025720200341379,53.03662967681885,48.88888931274414,96.46302032470705,0.5280503936111927
263,1.7025894850492478,0.05029754200950261,47.11538455486298,48.88888931274414,96.46302032470705,0.8967876184731722
264,1.9577623665332795,0.27449962310492987,55.44017105102539,50.17948760986328,93.26864814758302,0.26312715336680415
265,2.2348322927951814,0.45798383057117464,34.7069598197937,52.57631301879883,87.33624267578125,0.24265172649174924
266,2.3705252349376678,0.4585342966020107,51.79304027557373,43.57020645141601,71.5517578125,0.23079753499478098
267,2.4487670421600343,0.3828912638127803,45.55982866287231,41.31867980957031,61.04522972106933,0.11477013807743783
268,2.457579255104065,0.23400379009544844,52.97252712249756,27.216117334365844,48.76914596557617,0.03017430901527402
269,2.4163411617279054,0.06789566853549327,49.228326892852785,21.7954824924469,47.71313037872314,0.055139957368373814
270,2.2909482061862945,-0.1063760189339518,49.09584903717041,16.82905969619751,67.23315811157227,0.002873743698000905
271,2.1917249143123625,-0.18966059722006315,49.76617841720581,17.52014627456665,84.69602260589599,0.0
272,2.1059297382831574,-0.22288089133799077,48.67521343231201,19.096458435058594,92.531982421875,0.0
273,1.9952620029449464,-0.25157041661441326,50.752747249603274,19.344322061538698,94.1266056060791,0.0
274,1.929456463456154,-0.2208940882235765,48.42429790496826,16.90842514038086,93.97334899902344,0.0
275,1.8794442534446716,-0.18021096289157865,50.003052711486816,17.99633660316467,95.10258083343506,0.0
276,1.8213827967643739,-0.16157447956502435,50.407204151153564,19.38461518287659,95.44077339172362,0.014368718490004526
277,1.7698065131902694,-0.14122809804975983,47.25885219573975,20.195360183715824,95.23905563354494,0.0
278,1.727538377046585,-0.12332864906638856,50.72039079666138,20.998168468475342,95.23827552795409,0.0
279,1.6911832004785539,-0.10970039237290614,48.89804611206055,21.56288146972656,95.4350372314453,0.00574748739600181
280,1.660130614042282,-0.09492356926202769,54.17948741912842,22.235653591156005,92.10293083190919,0.07795029617846008
281,1.6485335737466813,-0.06681833034381263,46.64957246780396,22.85714340209961,90.2255630493164,0.06358157917857163
282,1.661999875307083,-0.025336710526607874,49.92246646881104,23.90842514038086,89.87338142395019,0.0035921797156333903
283,1.6777932077646256,0.005830397055979092,48.55128211975098,22.9401707649231,88.91907081604003,0.027300565503537634
284,1.6805780231952667,0.014039167133159882,48.92735061645508,21.057997417449954,88.45321674346924,0.061067054048180525
285,1.6667302578687668,0.0003961238317060597,51.44200277328491,22.304029083251955,88.32298049926757,0.0529846495017409
286,1.6902295023202896,0.019592753032156865,49.03540878295898,22.7008544921875,89.68506317138672,0.036819840781390625
287,1.746841350197792,0.0628015710972249,51.60561656951904,21.191697597503662,91.87276725769043,0.06286314390599722
288,1.739059117436409,0.03931441134773189,47.7753360748291,20.227106189727785,92.80046997070312,0.010058102943003168
289,1.702742099761963,-0.004567332463921037,51.36813220977783,20.556777000427246,93.80807266235351,0.0
290,1.6912213623523715,-0.020326016983017274,49.03174591064453,21.435897827148438,94.90718841552733,0.0
291,1.684965056180954,-0.029843344213440953,50.26129388809204,22.289376878738402,94.02285022735596,0.01149497479200362
292,1.6664250671863556,-0.03931979425251479,49.42063493728638,20.899878025054935,93.51997241973878,0.0
293,1.6551332086324693,-0.03270183065906159,48.78449325561523,20.909035968780515,93.52964839935302,0.00574748739600181
294,1.6451002568006516,-0.029040746157988843,51.60805873870849,21.611721754074097,92.86569881439209,0.012572628818452346
295,1.6252250730991364,-0.03698355648666614,47.21184368133545,20.63736310005188,93.64096450805664,0.02011620625853537
296,1.611491757631302,-0.036359441652893995,50.972527503967285,21.252747583389283,94.11777687072754,0.02298994958400724
297,1.6033661723136903,-0.03083367869257923,49.141636276245116,21.45787529945374,93.96909523010254,0.0
298,1.5956984251737596,-0.02640847205184398,50.01526231765747,21.330891656875615,92.54426918029786,0.0
299,1.592532107234001,-0.018121433956548545,50.28815622329712,22.131868743896483,92.91744537353516,0.0014368718490004526
300,1.5900143384933472,-0.0154671994969248,57.70451736450195,22.148962020874023,93.67681121826172,0.0574748739600181
