sec,SCL,SCR,BVP,PVA,HR,MOTION
0,1.5780358195304864,0.0010000000474974,57.40476140975952,0.0,30.0,3.6453438043594453
1,1.7410428345203404,0.0010000000474974,50.48107423782349,0.0,30.0,0.0
2,1.7674794763326678,0.0010000000474974,49.84249095916748,3.8711844444274903,36.6859761238098,0.0
3,1.782967621088027,-0.010985937112127461,49.77289381027223,11.920635128021228,66.98590412139893,0.0
4,1.7731635570526163,0.13762618992477665,40.639194178581235,17.4847373962402,80.2139053344727,0.049751687422394775
5,1.7750709563493765,0.016271452349610634,60.937729264237,18.40537195205689,87.70789375305176,0.1961330076679586
6,1.7928098410367928,0.01947050590533763,52.0879123210907,29.18131833076479,93.05213584899903,0.06016900818794968
7,1.799905398488042,0.017896528006531298,44.6739929676056,54.547008323669424,92.25753364562993,0.13165337964892393
8,1.8478575915098188,0.05784584949724375,57.27472548484802,44.46764259338378,78.20627899169924,0.09034331794828183
9,1.9149983227252965,0.10335851889103656,48.89926695823669,48.5470085144043,66.8523712158203,0.5769040331244468
10,1.9263664811849612,0.08417894467711452,48.496336936950684,48.5470085144043,66.8523712158203,0.07238241881132125
11,1.9644001573324208,0.09071393962949517,48.67155027389527,47.392551326751686,71.32068939208986,0.0
12,2.018036413192751,0.10508842226117861,48.46581192016602,10.283271980285663,89.83179054260252,0.07166398223489517
13,2.020058280229571,0.0664692312479019,49.517093944549565,10.034188389778151,103.86289787292465,0.059989398345351164
14,2.0187993705272698,0.03945639226585625,49.286935520172115,10.512820720672599,111.0665702819825,0.05783409196883442
15,2.0844523429870607,0.08019176190719006,49.26373624801637,10.424908351898178,109.7188793182374,0.011135756969451913
16,2.14594712257385,0.10594046637415891,50.28266172409058,10.124542212486293,107.34181060791043,0.06124666128307578
17,2.169331949949264,0.09632580149918799,49.65140419006349,10.547008800506594,107.12442359924326,0.00574748739600182
18,2.184438604116441,0.08083059079945092,49.50671529769898,11.54639811515807,105.772312545776,0.048314816504716904
19,2.2569582164287576,0.113084801658988,48.959706974029544,13.174603319168094,103.77799987792983,0.025863693654537213
20,2.3108996868133524,0.11825318709015846,49.10500612258912,9.67338242530823,104.68149795532216,0.0
21,2.3039949238300363,0.07374531887471678,50.01526250839233,8.772894001007081,106.95464782714835,0.06896984688937655
22,2.3004852473735853,0.04192750137299302,50.534798812866214,8.08180708885193,108.2620803833009,0.030174308829009556
23,2.3051774501800586,0.021190749900415536,50.85531148910523,8.288156294822693,109.0944353103641,0.01149497479200364
24,2.3060929775238086,0.00412088804005174,49.57142877578737,9.639193964004523,111.19704036712635,0.0
25,2.31341744661331,0.00797470917750613,48.684981441497804,11.068986511230507,110.61910800933865,0.0
26,2.3341319084167464,0.02572224475443361,48.51221008300782,10.859585046768204,109.3544723510742,0.028737436793744575
27,2.338175618648528,0.0222873318940401,49.82539710998536,9.537240815162658,108.66836872100819,0.03664023205637933
28,2.328676700592039,0.006861282547470151,49.9462760925293,8.99511606693268,106.77571716308573,0.03771788608282805
29,2.361140787601472,0.03256136642303317,49.760073184967055,9.360195112228396,105.99554958343484,0.0964500216767192
30,2.4263741016387934,0.08008122500032186,49.66117219924928,8.317460775375366,105.82592754364039,0.09142097141593696
31,2.4321726083755495,0.06388963675126433,49.12271060943604,7.928571569919586,108.57100257873523,0.002694134600460525
32,2.4179052174091322,0.032522955536842355,49.929182147979745,9.969475054740943,110.85181007385265,0.0
33,2.4130222797393777,0.011417927069123823,49.98595809936524,8.908424973487858,111.67743186950672,0.01724246218800546
34,2.425649291276931,0.008287877414841164,50.271061801910406,10.200243902206433,111.92465133667,0.018679334037005915
35,2.441862255334855,0.016776987817138444,49.42429780960083,10.459096312522892,111.940299987793,0.00862123109400273
36,2.453726303577425,0.02601543446071447,48.70695962905884,11.210012149810797,111.00633468627919,0.04939246959984305
37,2.4998092591762537,0.062274756282567977,49.76678848266602,12.00671572685243,109.3682424545289,0.07687264308333396
38,2.5453581154346496,0.08510446324944497,49.11233196258546,9.69474983215332,107.7580272674558,0.04723716173321009
39,2.529793673753739,0.04528762963600458,50.07020769119263,9.815018129348761,106.27522697448748,0.015985199436545378
40,2.50968962907791,0.008415265894473093,50.26373586654664,10.49328451156616,107.41751022338869,0.0
41,2.5082399845123273,-0.005118431363371147,50.10439558029175,10.449328327178979,105.75741996765157,0.0
42,2.5065996289253216,-0.013815250247716895,49.70451755523682,11.037851047515911,105.14821548461893,0.03664023205637933
43,2.512894058227538,-0.0031302861247240856,50.00976781845093,10.492673826217636,105.50380382537863,0.07274163439869868
44,2.6114688575267793,0.0921735014766455,48.84188022613525,11.327838993072492,105.63380432128902,0.09914415553212154
45,2.6863154768943778,0.13887964375317094,48.57448091506958,11.6941394329071,106.858544921875,0.014368718490004536
46,2.6693395853042574,0.08725540228188042,50.387057113647465,10.913309216499304,109.61477317810049,0.0
47,2.6500366151332875,0.03799179904162884,49.76495714187622,11.451770591735833,107.72784309387191,0.007184359245002275
48,2.643360614776615,0.00346560252728523,50.24053726196289,11.23565311431887,105.8762187957766,0.010776539146900185
49,2.6453825414180794,-0.012190686282701781,49.42307682037354,11.546397709846492,105.72687530517598,0.02406760398298504
50,2.6558351516723633,0.000289344769407765,48.41147747039796,12.587911677360506,105.72687530517598,0.05442152097821231
51,2.702337712049485,0.047553209355100975,49.19352865219117,12.08913297653199,108.1951889038085,0.0678921950981021
52,2.731521034240727,0.06409407975152133,50.591575241088876,11.238095045089745,108.2935623168948,0.03161118067801001
53,2.7135151088237786,0.030216652736999083,50.57142839431764,11.21611719131472,107.77331333160416,0.015805590711534034
54,2.698179590702057,0.002945855125290115,49.58913307189942,11.070818138122595,107.86227226257336,0.0
55,2.6924955189228053,-0.011992308869957903,49.39804620742799,11.074481010437001,106.28908538818351,0.02298994958400728
56,2.69123660326004,-0.01598218454746527,48.7136752128601,10.932844638824465,106.91044158935544,0.02424721252173185
57,2.7487258613109593,0.04326474093977593,50.434676265716554,14.830891442298881,108.12868480682368,0.16380338557064514
58,2.8324991643428783,0.11259959582239394,49.59340686798096,13.903540802001945,108.05665111541752,0.01149497479200364
59,2.8209402680397035,0.0752587962895632,50.253357601165774,12.050671434402473,106.51821765899633,0.046698335558176075
60,2.796105825901033,0.028460053680464604,50.09706945419312,11.520146584510794,107.82740497589107,0.0
61,2.8439436018466946,0.05196841675788165,49.08363838195801,11.677655935287444,110.5634490966795,0.018679334409534946
62,2.914975440502166,0.08820276912301783,49.33577508926392,11.976800632476856,112.02423076629614,0.0889064447954298
63,2.9167683839798006,0.06594422794878488,49.55128192901611,13.558608269691486,111.50467681884763,0.04346537310630087
64,2.9709769010543825,0.09935338050127028,49.994505691528325,13.902320098876924,112.6980373382568,0.1009402476251126
65,3.033349120616912,0.12111215330660341,50.22100114822389,13.527472400665285,112.2624286651613,0.07453772556036711
66,3.0212179899215674,0.06516468282788992,50.38827848434449,13.412087869644179,112.070995330811,0.011135756783187395
67,3.0014954388141653,0.02063243065495043,49.95116014480592,13.974359250068693,112.04481506347699,0.0
68,2.9996261596679736,0.0024322509611010663,49.94261293411255,14.153846168518072,112.04481506347699,0.018679334037005915
69,3.0003509521484424,-0.009578959131613338,49.347985744476325,13.144688677787801,112.04481506347699,0.00574748739600182
70,3.003402799367906,-0.0046221247117500626,48.508547306060805,14.158730030059829,112.04481506347699,0.05334386695176361
71,3.06608020067215,0.05803347839973867,48.936508083343504,14.548840022087123,112.04481506347699,0.03502375185489657
72,3.0996124088764168,0.07537047993391752,49.74908437728882,12.09829046726229,112.04481506347699,0.024426821433007735
73,3.0668431758880645,0.025596416741609562,49.84554338455201,11.42246632575989,112.04481506347699,0.0
74,3.0450987100601195,-0.006772162830748117,49.39804620742798,11.809523487091045,110.26594352722171,0.0
75,3.0346079468727103,-0.02519731465727092,49.97252750396729,12.45421285629271,108.6041574478152,0.0
76,3.044907945394516,-0.016053896039375102,48.20695972442628,11.476190233230575,108.55801086425792,0.10507125072181216
77,3.1182668507099156,0.059819802735000836,50.649572753906256,13.425519514083874,109.45492668151851,0.04669833481311798
78,3.1633197784423865,0.09182428587228059,49.92307672500611,13.412088012695332,111.24581012725803,0.01436871849000455
79,3.1313898086547853,0.041128912521526215,50.09035415649415,12.381562900543212,110.87570552825935,0.001436871849000455
80,3.117847269773482,0.011354836751706888,50.09340658187867,12.857143163681007,112.1182237625125,0.019038552232086673
81,3.16343424320221,0.03677386916242539,49.68620300292969,13.666666865348777,113.2560895919797,0.0
82,3.2005142807960487,0.05187707254663108,50.03846158981323,14.037851071357688,112.9215423583984,0.06735336799174549
83,3.21157721877098,0.05210336335003374,49.97496929168701,15.079975605010992,112.21781940460228,0.04705755356699233
84,3.236564224958422,0.06158725870773194,49.28693532943726,15.140415287017788,111.57764816284175,0.029455872811377053
85,3.237899374961855,0.04004294406622645,49.24786319732665,14.395604610443101,111.94273376464851,0.0
86,3.3011108815670007,0.0772378518246114,50.19291810989381,14.082417702674885,111.7709215164188,0.0
87,3.318811601400377,0.06880844011902809,50.258852386474615,14.288156175613386,111.929867553711,0.0
88,3.2875301361083964,0.017833691611758663,49.55189256668092,15.16727690696715,111.940299987793,0.01149497479200364
89,3.266586822271344,-0.013026381909730836,50.73076925277711,14.918803501129156,112.1296716690064,0.022989949770271793
90,3.251899784803394,-0.032458903081715125,47.10195355415344,15.520757055282612,112.67743759155273,0.0
91,3.2546846032142667,-0.02660089172422887,52.71123352050781,23.42734994888305,108.17421875000021,0.06447962261736388
92,3.2760094463825196,0.005175313792460642,48.51220989227295,26.105005264282205,107.430618286133,0.012931846641004094
93,3.2683416426181773,0.0030064869104535147,48.92307701110841,17.98595886230468,111.11698226928748,0.036281014606356646
94,3.2437742114067105,-0.0174214526778087,49.404151630401614,14.923687577247652,112.33117485046378,0.0
95,3.2268364846706397,-0.029512515850365174,50.01343135833741,14.745421099662781,109.93126869201664,0.02442682161927225
96,3.225844645500184,-0.02520337896421551,49.8937728881836,14.928571271896397,109.05965137481708,0.0
97,3.253234952688218,0.008085540100000805,49.84798555374145,15.150793623924255,108.7819824218753,0.09752767365425814
98,3.323809015750885,0.07624526284635069,48.82478637695313,15.55555534362792,109.58959197998081,0.05226621311157944
99,3.3690145492553683,0.10203435029834507,49.400488471984865,14.7741146087646,110.55003356933601,0.0
100,3.3494445741176606,0.05690663051791493,49.39743604660034,14.156288075447097,107.93173503875762,0.0
101,3.323656439781191,0.00908789294796861,50.3418803215027,14.329669952392582,106.53006324768046,0.01149497479200364
102,3.3213675379753136,-0.009972416306845821,50.12942600250245,14.599511241912817,107.42247390747075,0.0075435772538185175
103,3.337389749288561,-0.002261703600197492,49.935897541046145,14.62271032333371,106.8682960510254,0.0576544834300876
104,3.393391227722168,0.051976113254204426,49.05921859741211,14.484737348556498,106.00247020721432,0.00862123109400273
105,3.440694910287853,0.08687839657068255,49.02380952835084,14.814407539367682,107.54494590759275,0.00862123109400273
106,3.414601570367816,0.04172810057643804,50.53174619674682,14.283271908760046,106.26114578247056,0.00862123109400273
107,3.38915678858757,0.000517719956405925,50.141635799407965,13.710622429847708,106.40984630584731,0.00862123109400273
108,3.3811457157135,-0.018760878802277132,49.10378484725953,14.920024204254156,107.50749931335426,0.026582129299640673
109,3.4140675127506257,0.00849373142991682,49.71001205444337,15.36507892608642,108.16777305603009,0.0779502980411053
110,3.549531543254853,0.13324936302378781,48.52808303833008,16.703296184539802,107.430702209473,0.07543577086180447
111,3.685415214300156,0.23072230070829391,49.17277183532715,16.923076987266548,109.1153858184816,0.0
112,3.7406155586242678,0.2214092124253512,50.161172199249265,13.708180689811678,109.83763084411638,0.010058102943003185
113,3.723754090070723,0.13460290804505343,50.30219745635987,13.858363652229295,109.24978427886947,0.010058102943003185
114,3.710783720016477,0.05648441109806297,50.079975318908694,12.826007556915247,109.3892965316771,0.01149497479200364
115,3.7075792551040614,0.006808577301490018,48.84981679916383,13.62576348781582,108.73760509490981,0.038615931011736396
116,3.709219652414318,-0.008414712094236132,50.039682674407956,13.97863259315489,108.8345422744754,0.03879553899168969
117,3.7209311366081215,0.00469930909166577,49.13553113937378,14.092185592651342,110.97611865997325,0.0
118,3.7251273989677416,0.010805644863285117,48.22100133895874,14.2710619211197,112.05783748626682,0.0339460974559188
119,3.70830407142639,-0.006416772634838683,50.337606906890876,14.456654310226426,110.12089767456045,0.0
120,3.686216294765476,-0.025928720459341997,50.44627599716186,14.26373600959781,110.41337356567362,0.025863693654537223
121,3.681485921144489,-0.025581005308777077,49.163613986969,14.766788840293932,108.58387775421116,0.035921796225011376
122,3.705671864748001,0.003476125077850158,48.628205108642575,14.405982756614714,108.57070198059077,0.0993237648159265
123,3.777047020196915,0.07184239225462076,51.12820501327515,16.35164895057678,110.58133945465094,0.08926566205918779
124,3.82572403550148,0.10265227332711227,49.13125782012939,14.83760666847229,110.395584106445,0.02622291147708895
125,3.817941832542419,0.0693161405622959,50.053113651275645,15.593406581878673,110.74344844818079,0.024786039628088494
126,3.806955176591871,0.032689088024198974,49.3424906730652,14.920635223388661,111.6697525024413,0.01724246218800546
127,3.8198110520839683,0.020930357021279617,49.90476179122924,14.233821868896488,113.41131210327151,0.00287374369800091
128,3.8170643925666794,0.002221732510952275,50.133699607849124,14.933455181121795,113.636360168457,0.00574748739600182
129,3.8442640304565443,0.025751631442108198,47.96398067474367,15.965812492370599,112.952833557129,0.007184359245002275
130,3.94276253581047,0.11119751539081331,49.96031732559204,15.90232048034668,112.69747161865241,0.05011090543121101
131,4.046678018569947,0.17682578973472132,50.64163599014283,15.036630034446713,112.31535587310809,0.06160587985068559
132,4.0601061344146725,0.14088500048965225,49.94383382797242,12.660561513900776,112.14797973632793,0.01149497479200364
133,4.031876659393315,0.06764881955459714,49.2863247871399,12.838217163085947,110.86239395141612,0.025863693282008188
134,4.014023256301881,0.010406850643630615,49.8608057975769,12.705127930641144,110.45913181304934,0.0
135,4.004219126701355,-0.022896904032677416,50.24297943115235,13.155067062377942,110.702523231506,0.025863693468272702
136,4.046678066253664,0.015341527009150016,49.14529905319214,13.843712139129645,111.63345642089828,0.01149497479200364
137,4.09367653131485,0.05934781590476632,50.31746034622193,14.700855016708399,112.12463188171401,0.0
138,4.071893990039824,0.02948229482863098,49.8479850769043,14.366300463676463,112.61854000091537,0.0
139,4.045724391937261,-0.003538499576097815,49.77350435256959,14.50854699611665,112.51964530944834,0.0
140,4.034012854099277,-0.021639655227772912,48.50549449920655,14.817460322380066,111.11689090728753,0.038436322659254105
141,4.021080613136293,-0.035947185661643725,49.24236869812013,15.084859275817895,109.78865222930922,0.01867933422327043
142,4.054956209659578,0.006902577180153453,49.04090347290041,13.879120540618853,107.8999164581297,0.0
143,4.142544305324554,0.09143455512821674,49.90781440734863,13.277778053283692,109.01320381164562,0.0
144,4.153340196609495,0.08269992377609015,50.376678752899174,12.88705735206606,111.00741100311288,0.025863693468272702
145,4.13403730392456,0.04285615738481283,50.56837635040284,12.88827838897702,112.34455127716085,0.022989949770271793
146,4.113284718990329,0.0027554279011383176,49.57570190429688,13.413919496536247,110.68986339569089,0.0
147,4.092951774597169,-0.03202086850069464,49.82783889770508,13.464591097831732,111.05527534484861,0.0
148,4.074755060672759,-0.04679180290549993,50.45543355941773,16.128205013275156,110.48090400695826,0.0
149,4.0964995503425605,-0.009785799188830427,48.42673997879029,15.583638381958028,108.9513193130492,0.05980979036539793
150,4.1934721112251285,0.0871019296348095,47.98779001235962,14.9938945770264,109.990837097168,0.04741677120327953
151,4.246993923187254,0.11977278888225559,50.57387056350708,15.307692193984995,111.89029655456565,0.05082934200763706
152,4.260002386569977,0.1027020003646613,51.05677642822267,12.689865803718567,112.3652160644532,0.016703635454177867
153,4.276673221588137,0.08201659535989161,49.947497081756595,12.813186669349657,112.85760803222654,0.013829891383647921
154,4.250465381145476,0.018685029018956797,48.42368745803834,14.456043791770913,113.30183887481671,0.0544215209782124
155,4.2254783749580405,-0.025142403459176427,50.161782741546624,16.96520128250123,112.46532878875732,0.07669303491711621
156,4.2312387228012085,-0.018750995682785272,50.86446895599366,17.264957046508776,112.0451671600346,0.0
157,4.258514714241028,0.009810003803431748,47.78571462631226,16.742979574203474,111.01386833190902,0.01724246218800546
158,4.247947597503661,0.002128433019970545,49.227716922760024,15.978022241592381,111.5606678009033,0.04436341822147371
159,4.225402104854585,-0.014441790478304023,50.150182819366464,14.203296947479256,110.65314903259302,0.01580559015274048
160,4.220213997364048,-0.016241538507892984,50.14163618087769,14.845543217658994,108.83044471740754,0.03322766162455083
161,4.284646117687226,0.0436432812712155,50.21367521286011,16.843711471557626,106.6759654998779,0.05370308514684441
162,4.35262610912323,0.09598156027495866,50.66666698455811,15.308913040161102,105.34669532775891,0.030174308829009556
163,4.355372762680053,0.07832557819783692,49.35042753219605,14.813186645507812,109.2422069549561,0.02837821915745737
164,4.327143180370328,0.029068839619867486,49.19780206680299,15.687423467636108,109.791038513184,0.012931846827268608
165,4.303720128536226,-0.013111805275184449,49.99633684158325,15.336996293067958,106.87149562835698,0.0
166,4.306085431575774,-0.022069432027637975,50.41941404342652,15.563492250442499,106.5816205978394,0.050290514901280434
167,4.29986723661423,-0.02444441020488741,49.9450553894043,17.097069835662843,109.65114688873305,0.015446372516453278
168,4.284112036228183,-0.02695371028967202,49.3553111076355,17.35409054756162,110.14667415618919,0.027839392051100743
169,4.26427503824234,-0.03333118460141125,49.19230747222901,16.03357787132264,107.16696300506592,0.00287374369800091
170,4.240394270420072,-0.04484088942408564,49.08302822113036,15.615384578704838,106.08698425292934,0.0
171,4.224639129638674,-0.04635376716032626,49.2496946334839,16.014652228355423,105.58414764404304,0.0
172,4.216628074646001,-0.03716180901974441,50.52503089904785,16.42002458572392,104.69416732788079,0.03161118105053904
173,4.2527543067932125,0.01148098993580788,49.79731359481813,17.371795415878324,104.838748931885,0.06322236135602
174,4.346522402763368,0.10031995233148334,51.689255237579346,17.8021984100342,105.078811645508,0.05136816911399368
175,4.375286090373996,0.10507357139140375,46.60134334564209,17.8021984100342,105.078811645508,0.047237162850797196
176,4.3340860962867716,0.03915670090354979,49.82539653778076,16.219780921936042,106.6788536071775,0.011135756969451913
177,4.304635739326478,-0.01013861947794795,51.042124366760255,14.371184444427499,107.2429756164548,0.0
178,4.281212818622592,-0.046176744019612706,49.319902420043945,15.14896216392518,107.68895893096926,0.008980449102818974
179,4.26099443435669,-0.06018025977537039,51.23870601654054,15.21428558826447,106.24679546356192,0.09842572212219244
180,4.26313066482544,-0.036017240630462785,48.36813192367554,15.30647089481354,105.93882331848154,0.03197039887309076
181,4.259621012210847,-0.02112170578911901,48.457264804840094,16.208791351318357,108.09418258667024,0.0
182,4.248367273807525,-0.0195649640634656,50.97924270629884,15.196580791473412,106.42169494628895,0.004310615547001365
183,4.232192420959471,-0.025374739477410913,50.730769252777115,14.564102411270138,106.27213592529331,0.010058102943003185
184,4.209570622444157,-0.03816915135830643,49.60805845260621,14.421245312690724,109.95305824279794,0.07651342637836936
185,4.205450665950779,-0.030856823117937904,49.4023196220398,16.192918252944928,110.99917182922336,0.0337664891034365
186,4.274956524372101,0.04413093667244536,49.70207567214966,16.3369960784912,108.90997295379671,0.01436871849000455
187,4.334582114219664,0.0920059867203236,49.169108486175546,16.1172161102295,108.57235717773452,0.034664533287286775
188,4.321230173110958,0.06083959201350807,49.27838821411134,15.94627609252926,107.59558715820279,0.055319567210972344
189,4.312685084342952,0.03369676386937496,50.49206361770631,16.312576675415023,105.53355598449703,0.0
190,4.361934232711794,0.05718344477936629,50.61843709945679,16.147741413116456,105.10263805389404,0.036101405136287235
191,4.413815796375273,0.07739121373742823,48.501831722259524,15.60622699260712,106.80140457153315,0.05172738712280992
192,4.402333104610443,0.046106792148202694,49.50549478530885,15.555555343627901,106.007152557373,0.02765978351235392
193,4.389210224151617,0.020262804580852407,49.738706016540526,15.2271061897278,106.70105514526374,0.0
194,4.386768734455114,0.0030389995881705397,49.849816703796385,15.130646991729737,107.63898735046368,0.0
195,4.369106125831607,-0.02388769213575869,49.32600717544557,15.7875458240509,108.31526947021455,0.0
196,4.366893482208254,-0.020462576532736414,50.23076925277711,15.58608019351956,108.27108554840083,0.00574748739600182
197,4.41908017396927,0.0364497983347974,48.63308916091919,14.945055007934602,106.5159042358396,0.018679334037005915
198,4.520706832408906,0.12272448129951952,47.96825399398804,14.609890055656447,106.6376089096071,0.029815091192722337
199,4.581095325946807,0.1493817862123252,52.03052511215211,15.07326006889345,106.41674728393575,0.01957737877964974
200,4.604594576358794,0.13053353726863864,46.09462747573852,15.067154884338402,107.238609313965,0.09950337391346681
201,4.762642312049866,0.22677209675312046,52.364468955993665,15.067154884338402,107.238609313965,0.01077653896063567
202,4.867053747177124,0.24076830521225934,49.58485984802247,13.692918276786823,107.7893205642699,0.0
203,4.832529687881473,0.1309417566284537,51.308302879333496,12.282051348686227,109.48373432159414,0.011854192614555361
204,4.843249261379243,0.08704376555979257,49.52930393218993,12.769230699539195,111.24160194396966,0.0197569876909256
205,4.874797809123994,0.0640524973161519,48.3412699699402,12.667277264595,113.00539093017578,0.01724246218800546
206,4.861064553260802,0.01121732288593194,48.861416244506835,13.08119676113131,113.06208877563463,0.043465373106300824
207,4.8508406162261934,-0.0028927008213940676,49.32539691925048,14.086691427230843,112.29662036895759,0.02891704607754946
208,4.853473091125487,-0.0005873816276107158,50.814408302307136,14.1391944885254,112.149536132813,0.052445822767913375
209,4.853625679016112,-0.004797899108962112,48.6312575340271,14.1391944885254,112.149536132813,0.038975149579346204
210,4.8355052351951615,-0.019701463216915748,50.407814407348646,15.502442646026632,112.0762313842778,0.018679334037005915
211,4.8042619347572355,-0.04088976699858908,49.37301578521729,13.62637395858765,112.04481506347699,0.03286844324320556
212,4.777787053585052,-0.054562523867934976,50.49389505386354,13.6996335983276,110.33824062347458,0.0
213,4.7553560376167265,-0.05991241550073031,49.03052530288696,14.871794700622598,110.80483627319299,0.03915475830435755
214,4.770691549777983,-0.02472703498206103,49.51587295532228,17.144688200950625,111.70078887939442,0.010058102943003185
215,4.8914685368537905,0.0997636508196592,49.273504161834715,15.932844781875636,111.0400966644286,0.021553077735006827
216,4.956549191474915,0.14160535205155594,50.00549449920655,14.100732779502886,111.29485664367662,0.0
217,4.958838140964509,0.11093822252005343,49.954822826385495,14.612332034111011,111.81263313293466,0.010058102943003185
218,4.981498181819919,0.09239736795425414,49.434676551818846,15.131868147850048,111.69337310791016,0.05424191262573007
219,4.962080693244935,0.02985745889600367,49.77777757644653,15.76800954341889,109.37500343322752,0.06843102164566518
220,5.015449976921082,0.05221104463562369,49.985348033905034,16.1416358947754,108.69565582275399,0.001436871849000455
221,5.075724041461948,0.08869356159120799,47.86141624450685,16.1416358947754,108.69565582275399,0.020116206072270885
222,5.041962957382202,0.03345808625454084,50.09767980575562,16.64102613925932,108.40240955352776,0.0
223,5.007171869277955,-0.011277082102606082,50.71794862747193,13.567765831947316,108.59491386413556,0.060887444950640225
224,4.98687702417374,-0.03625492234714329,50.055555629730236,13.71123316287993,109.29893264770519,0.023708385974168793
225,5.023232233524324,-0.0030996264307759603,50.27960920333862,15.489011645317083,111.17411861419677,0.0384363217279315
226,5.114406180381773,0.08440743004903198,49.37667894363403,16.0195369720459,111.627906799316,0.06178548876196142
227,5.105365133285521,0.06391634717583658,50.32661781311036,15.963370370864885,111.55663261413574,0.03610140532255174
228,5.069811046123506,0.016404572362080212,34.19047613143921,16.0195369720459,107.913665771484,0.036460622027516335
229,5.141033685207367,0.0671217389870435,66.73931665420534,16.0195369720459,107.913665771484,0.07938716933131228
230,5.194021439552305,0.0836800348944962,47.49389524459839,16.0195369720459,107.913665771484,0.030533526651561282
231,5.169721126556401,0.0381008173339069,49.028693485260014,16.06105060577393,109.64305114746101,0.01724246218800546
232,5.1837213873863215,0.040970460139214994,52.676434421539305,18.02808284759525,107.70551300048835,0.03466453365981581
233,5.216567015647888,0.05067643979564309,47.577533626556395,18.6813182830811,107.04727935791,0.07992599755525592
234,5.29354988336563,0.09618838988244541,48.49206371307373,20.607448005676275,107.10223846435561,0.05855252817273142
235,5.309991800785065,0.0864148792810738,49.907203960418705,19.5482292175293,108.37461090087925,0.004310615547001365
236,5.260589921474456,0.015946773679752366,48.4914529800415,18.159950780868545,110.93266563415519,0.018679334037005915
237,5.224311041831971,-0.03334748977795243,50.66178274154663,18.38156275749206,110.0104518890383,0.0
238,5.204016292095183,-0.05690233064815402,49.637362766265866,19.295481777191146,109.23740158081084,0.0
239,5.185743331909176,-0.06316957389935852,51.418803691864014,18.90109882354738,110.0213119506836,0.01724246218800546
240,5.18929108381271,-0.03453407653141767,49.52258872985839,18.74175791740417,108.8291015624998,0.01149497479200364
241,5.19848482608795,-0.007388180104317105,48.426129150390636,19.6336994171143,108.16880931854246,0.0
242,5.18967247009277,-0.006808635160268715,49.08241767883301,19.41208829879762,106.32934284210197,0.02191229593008758
243,5.205580353736876,0.012761721141578142,47.343101263046265,18.79731392860411,106.46511764526367,0.06627571452409033
244,5.28294472694397,0.08156331293284894,52.42185573577882,16.326006913185147,106.0082141876223,0.03089274466037752
245,5.394260954856873,0.16051236465573318,49.61660585403443,15.873015403747598,105.72687530517598,0.010058102943003185
246,5.386440622806548,0.111738052032888,50.57997570037843,22.50183167457581,108.27746353149409,0.0
247,5.336237668991091,0.028289772677817387,49.35897455215454,16.288766813278173,111.07979869842549,0.00862123109400273
248,5.301713633537292,-0.03053013510070741,48.57326002120972,15.494505405426048,111.3176383972165,0.03232961706817152
249,5.282715797424314,-0.05996864475309849,49.2545786857605,15.240537047386127,111.77611351013218,0.05388269480317833
250,5.320253622531892,-0.012483978625095917,51.25518903732301,16.068986105918878,111.935083770752,0.06717376019805675
251,5.364047670364377,0.04152508708648384,48.99023180007934,16.513430452346846,111.670814704895,0.00287374369800091
252,5.32811212539673,0.007856722323049336,45.66971936225892,15.891941356658966,110.7728551864622,0.0
253,5.333986949920655,0.012983749991963122,51.75702047348024,15.9218559265137,110.70110321044902,0.07399889938533304
254,5.405591022968294,0.06810200968757271,52.27899856567384,16.17582416534426,110.68071670532211,0.04490224514156581
255,5.458731341362002,0.09470704700797798,50.66300392150879,19.430403137207016,111.44085865020786,0.07579499036073686
256,5.590075409412384,0.19122406207025053,49.86996326446533,20.106227588653542,111.44168853759724,0.030174309201538584
257,5.6189153671264656,0.1660029171034694,47.86691074371339,18.446886539459236,111.88032798767108,0.00862123109400273
258,5.564172792434692,0.057542644487693896,50.23076963424684,20.404150819778458,110.80467453002935,0.01724246218800546
259,5.52892391681671,-0.012446133559569715,50.309523963928235,19.834554386138933,110.27991237640367,0.04364498257637025
260,5.5131688117981,-0.04639587718993425,50.55799751281738,19.70573883056641,111.46762828826884,0.018679334037005915
261,5.504585325717929,-0.05220267018303275,49.728327178955084,20.210012054443343,111.17161560058624,0.041310065984725974
262,5.517212450504305,-0.016912581720680466,50.08485927581788,22.31868143081665,109.93986091613783,0.010776539146900185
263,5.580004262924197,0.0542481969576329,49.32967033386232,19.899877882003796,108.50408859252916,0.03879554048180582
264,5.600566148757939,0.06499254908412694,46.58302803039551,25.62637281417846,109.64723205566429,0.05639722049236301
265,5.613421916961675,0.060353214759379624,50.96031751632692,25.96092767715453,107.56830177307135,0.0
266,5.597399854660038,0.024549193162238227,48.66117200851441,19.380952501296978,106.83028106689437,0.038077103905379786
267,5.561769449710846,-0.025752275751437997,50.111721706390384,19.13553123474122,107.81546249389672,0.007184359245002275
268,5.5357905983924836,-0.05145016238093377,49.7319902420044,19.33943772315978,108.37427787780791,0.02442682161927225
269,5.514542078971866,-0.05891937017440796,50.065323543548594,18.559218406677253,108.06576538085952,0.03448492437601091
270,5.5148090720176715,-0.03929060142254456,48.60317459106446,16.57264971733094,108.05529289245638,0.03484414312988522
271,5.558145356178283,0.01822900342667708,50.64041538238526,18.913308429718022,108.13307228088414,0.004310615547001365
272,5.551087975502012,0.01504816887027118,50.57264986038208,20.13675203323366,106.55450687408438,0.0
273,5.521828329563143,-0.011545461346395303,49.340048694610594,19.46886415481568,106.65489387512204,0.06430001538246873
274,5.532128381729128,-0.00022907209568075719,49.15323581695557,20.72771701812742,107.61945610046405,0.045979899354279076
275,5.6495483160018924,0.1022645986638963,47.246642208099374,20.5738706588745,108.42980937957755,0.05639722049236301
276,5.760292339324954,0.17762721031904213,50.45665435791016,19.832112121582036,107.31755256652818,0.08639191780239343
277,5.827127909660339,0.1979402728378773,51.566544723510745,22.904762125015246,106.19995803832975,0.0
278,5.903004574775695,0.20723814740777016,50.738095474243174,21.243589496612564,107.30916328430176,0.0
279,5.932645654678347,0.15661463998258113,49.44017066955567,23.389499092102053,106.48773574829082,0.0
280,5.975829327106475,0.12605963386595248,49.29304018020631,22.42063465118408,105.51973190307629,0.024606430344283593
281,5.996467590332031,0.09185798317193984,48.559828853607186,21.416361761093132,107.420285606384,0.00772318616509438
282,6.018440806865694,0.07126538343727588,48.97374849319459,21.445665550231944,107.92905464172335,0.0
283,6.029732584953311,0.05038518183864652,49.30158748626709,20.59584922790526,105.5188398361204,0.007184359245002275
284,6.023438191413882,0.023533842293545607,44.84615368843079,18.26617813110348,104.2051330566406,0.07148437257856122
285,6.236419296264649,0.20633970396593218,50.29731373786927,17.533576965332,103.806228637695,0.10974108353257161
286,6.518906235694887,0.4050637535750865,60.74053759574891,17.835164928436303,99.7176742553711,0.11943997014313931
287,6.383976256847381,0.17606986397877336,43.95543351173402,17.851037979126,99.5024871826172,0.05837291926145557
288,6.266289234161378,0.0019275457700132326,50.548229789733895,22.572038984298736,98.94677619934082,0.04113045670092108
289,6.263695180416108,-0.04758911584503949,48.42673997879028,29.335164690017745,96.79942722320556,0.03843632210046055
290,6.3543351054191595,0.00287123529124073,52.15506696701051,24.94261302948002,97.97580261230472,0.034844142198562626
291,6.358722150325776,0.016248279262799762,49.86507940292359,16.582417631149315,107.20157203674339,0.01149497479200364
292,6.330339908599851,0.013969567581079895,49.97313766479492,17.785104227066036,111.83708934783942,0.037179059349000475
293,6.3313699483871435,0.010656563693191835,46.87667875289917,20.0244197845459,112.57418384552025,0.05352347716689113
294,6.373981416225436,0.03510728226974607,50.31807088851929,23.943223810195892,111.49260311126704,0.02406760379672052
295,6.405873298645017,0.04935502009466291,49.8485960006714,23.55555543899538,111.24805908203157,0.040232411958277245
296,6.386951804161076,0.02432639159960671,49.72405395507813,24.498167753219636,108.3993593215941,0.02550447508692742
297,6.344912517070769,-0.022962267855200485,48.60927991867066,19.510377979278587,106.3319057464598,0.0
298,6.32923364639282,-0.039328292850405,49.34126977920532,19.56044015884398,108.00988769531266,0.03735866807401182
299,6.354258882999421,-0.01258343414810951,51.53357763290406,20.056166744232176,108.79419708252001,0.07363968268036845
300,6.37531661987305,0.0108913965523243,50.769229888916,20.3418807983398,108.79419708252,0.0718435943126679
