sec,SCL,SCR,TEMP,BVP,PVA,HR,MOTION
0,7.710577726364136,0.0010000000474974,33.23275032043457,51.607447910308835,0.0,30.0,0.004310615547001358
1,8.045480251312256,0.4006000000284985,33.247000503540036,50.7765567779541,3.148351621627808,36.2307689666748,0.002873743698000905
2,8.174077534675598,0.7523497402667999,33.257748699188234,49.20757007598877,13.827838611602782,61.20675048828125,0.0
3,7.967734324932098,0.14974291917169463,33.26800003051758,50.88705749511719,13.31807084083557,69.3267225265503,0.007184359245002263
4,7.666936254501342,-0.22752760844305153,33.27849903106689,51.570817947387695,10.74969482421875,77.40578765869141,0.0
5,7.439687812328339,-0.4548309840261936,33.27974882125854,55.31562881469726,12.87057409286499,84.06783523559571,0.0
6,7.317918956279755,-0.4736455649137497,33.273999786376955,46.84126968383789,27.228327751159668,89.68621158599854,0.0
7,7.206144917011261,-0.41113663613796236,33.279998779296875,52.050060987472534,36.01953678131103,92.7526430130005,0.0
8,7.087961995601654,-0.3405358262360096,33.279998779296875,45.70573854446411,41.269840240478516,91.60123176574707,0.0
9,6.986068344116211,-0.2865970320999622,33.279998779296875,49.50305228233337,43.863247871398926,88.69657878875732,0.0
10,6.907254278659821,-0.245830525457859,33.279998779296875,49.18803434371948,41.532357406616214,84.50750122070312,0.015805590339004978
11,6.833971667289734,-0.21805535480380053,33.279998779296875,52.53296718597412,39.58485870361328,84.29055786132812,0.0014368718490004526
12,6.770378744602203,-0.18918520212173456,33.279998779296875,49.854700565338135,40.924296379089355,85.99566764831543,0.01724246218800543
13,6.757713508605957,-0.12420639730989927,33.279998779296875,45.54700860977173,45.174603652954104,87.05807342529297,0.0
14,6.752906918525696,-0.07402419056743378,33.28549995422363,52.719780158996585,53.67887840270996,86.41461982727051,0.0
15,6.6857661485671995,-0.09653845187276597,33.290000915527344,51.13186779022217,59.151405334472656,79.84325466156005,0.0
16,6.603175473213196,-0.13355205506086346,33.290000915527344,46.87362604141235,62.28571472167969,74.69415893554688,0.03556257840245959
17,6.537598776817322,-0.15268609821796414,33.294000244140626,46.064102745056154,60.420635032653806,72.40305137634277,0.0
18,6.490676581859589,-0.15053874589502808,33.29999923706055,53.98778986930847,58.415140533447264,71.66250171661378,0.0
19,6.43677327632904,-0.14562581367790695,33.29999923706055,49.429792165756226,52.80952253341675,75.02986812591553,0.0
20,6.38092440366745,-0.1383725889027118,33.29999923706055,55.30586085319519,60.75518827438354,80.78390865325927,0.0
21,6.3340022444725035,-0.12812198270112274,33.29999923706055,47.95054931640625,68.5372386932373,85.14511947631836,0.025504475645720937
22,6.298715138435364,-0.11274935696274038,33.29999923706055,49.61050081253052,66.10867004394531,86.09621162414551,0.007902795262634748
23,6.319849252700806,-0.04918790321971752,33.29999923706055,50.43406610488891,73.59035434722901,86.40274391174316,0.0
24,6.4164021730422975,0.06628978140652175,33.308250999450685,40.671550798416135,74.06288070678711,86.03856372833252,0.0
25,6.520317709445953,0.16022861227393145,33.310001373291016,44.97435903549194,74.20757141113282,85.86150207519532,0.0
26,6.816156482696533,0.3950557872653007,33.313500785827635,56.619047498703004,76.71978187561035,80.40969200134278,0.0
27,6.948568737506866,0.4078431449830532,33.31999969482422,51.65750875473022,76.79731101989746,73.06806297302246,0.0
28,6.874828362464905,0.2130188304930925,33.327751350402835,49.27655658721924,73.82112083435058,69.2619981765747,0.0
29,6.917401659488678,0.15108882188796993,33.33525094985962,48.404761743545535,70.34188041687011,67.79759922027588,0.0
30,6.862697243690491,0.007490726854302918,33.34000015258789,50.18376111984253,63.06166172027588,68.43394756317139,0.0
31,6.712546157836914,-0.16799100972712036,33.34324960708618,55.592795753479,55.16239204406738,70.57825736999511,0.0
32,6.603480637073517,-0.22497113421559328,33.349998474121094,45.86019539833069,49.426128387451165,76.05596542358398,0.0
33,6.523331415653229,-0.23605291321873662,33.35800018310547,54.57631230354309,54.03235673904419,83.54381618499755,0.0
34,6.464506959915161,-0.21573719456791873,33.36000061035156,44.18192882537842,63.72222013473511,85.4419605255127,0.0
35,6.407475519180298,-0.17922990471124647,33.36000061035156,43.69780216217041,68.33211059570313,83.37056846618653,0.0
36,6.355021846294403,-0.1498629856854677,33.366249561309814,56.00183153152466,75.14529876708984,79.17403259277344,0.05082934126257892
37,6.314241445064544,-0.12643520236015315,33.37099914550781,50.5293044090271,75.32295265197754,74.86959075927734,0.00790279507637023
38,6.284905529022216,-0.10286356322467323,33.380001068115234,48.15506682395935,72.51282043457032,74.0140167236328,0.0
39,6.341174030303955,-0.008418632776010768,33.388499641418456,56.794871950149535,65.28388185501099,75.27949562072754,0.07597459908574815
40,6.565027332305908,0.21449276674538847,33.39575061798096,46.710012149810794,67.008544921875,80.21120910644531,0.018679334037005883
41,6.897488307952881,0.4757961958646774,33.403250980377194,44.76251540184021,71.95359992980957,85.1533031463623,0.0
42,7.022537958621979,0.47036115676164625,33.4107497215271,51.87912106513977,71.55067443847656,85.9561393737793,0.0
43,6.856212055683136,0.17311819898895914,33.42124843597412,45.107448148727414,69.10012245178223,81.4287239074707,0.043824591673910576
44,6.667378747463227,-0.1065653439145535,33.43199996948242,50.407204151153564,63.526251220703124,78.23667602539062,0.10830421410501001
45,6.546716237068177,-0.25938396379351614,33.439998626708984,54.13675231933594,62.1898648262024,76.46297054290771,0.01149497479200362
46,6.475760650634766,-0.28550893738865846,33.44599990844726,49.68864507675171,59.028082275390624,74.22347469329834,0.007184359431266785
47,6.420178818702698,-0.2329770922660827,33.45000076293945,51.17521367073059,56.43711881637573,74.68509979248047,0.19110394958406682
48,6.3575396060943605,-0.18323269113898272,33.457499504089355,52.12271075248718,62.69108924865723,74.88301467895508,0.0
49,6.304513680934906,-0.15102568231523034,33.459999084472656,50.850427293777464,59.288156032562256,78.31115207672119,0.018320116214454157
50,6.265564453601837,-0.1256993809714913,33.468750953674316,43.77594652175903,64.04517784118653,80.14625663757325,0.07992599550634617
51,6.235427439212799,-0.10454371441155667,33.470001220703125,53.507326173782346,73.304030418396,80.38631095886231,0.03466453328728672
52,6.195944058895111,-0.09721501953899855,33.47400054931641,46.2112331867218,74.51770553588867,80.77557754516602,0.03412570655345913
53,6.248054432868957,-0.009953350702198788,33.47999954223633,47.441392230987546,65.9096450805664,80.98535823822021,0.019756988435983648
54,6.330111110210419,0.07860126057639713,33.48525066375733,57.19047613143921,66.29425983428955,80.45530624389649,0.0
55,6.283265173435211,0.025746281682222594,33.4900016784668,45.44688630104065,64.21367492675782,80.32469787597657,0.014368718490004526
56,6.341708123683929,0.07701943235879295,33.49950008392334,55.90964603424072,66.77045192718506,82.5374080657959,0.01616480760276317
57,6.675008380413056,0.3530543845146894,33.50699882507324,32.095848670043054,67.5946273803711,84.22747230529785,0.15608020313084123
58,6.953146421909333,0.5068989798426629,33.514499282836915,59.43589763641357,67.5946273803711,84.38818359375,0.04041201844811439
59,6.95802937746048,0.37506863474845886,33.52499961853027,47.688644886016846,77.57020721435546,80.67903633117676,0.0486740332096815
60,6.847438001632691,0.14720878461375828,33.53224925994873,49.76739926338196,82.9059829711914,73.60461807250977,0.0325092256069183
61,6.743751299381256,-0.058544654282741214,33.540000915527344,48.86935300827027,76.54212303161621,68.41498603820801,0.0
62,6.75038913488388,-0.09556780889397484,33.54350032806396,46.629426336288454,76.07814331054688,65.53718032836915,0.0
63,7.061410903930664,0.20148099297657604,33.54999923706055,55.12698383331299,76.15323371887207,65.68203620910644,0.05460112933069463
64,7.072359395027161,0.18680853890255092,33.55800094604492,52.943833684921266,75.92979068756104,66.95226440429687,0.012931846827268589
65,6.851824986934662,-0.04512369078584012,33.560001373291016,47.87912082672119,73.57020568847656,69.63662605285644,0.0
66,6.728606510162353,-0.16474695000797507,33.566000366210936,50.51343126296997,69.82661514282226,73.55333023071289,0.06106705330312249
67,6.644833242893219,-0.24172613210976118,33.57350044250488,51.101343107223514,71.19108848571777,78.40280590057372,0.02083464134484528
68,6.626102554798126,-0.20579932965338227,33.58725061416626,47.559218645095825,71.12331867218018,81.64854431152344,0.0
69,6.637737655639649,-0.10094764679670329,33.59474935531616,54.48656907081604,73.06288394927978,84.34303226470948,0.1255466755479574
70,6.557741022109985,-0.10922029893845316,33.599998474121094,44.95604372024536,75.68986892700195,84.8107795715332,0.0
71,6.549501025676728,-0.06771921535837461,33.60599975585937,52.49938974380493,75.22954864501953,85.45475463867187,0.01149497479200362
72,6.7167042851448056,0.10985227557830508,33.619748973846434,39.12515254020691,73.85470008850098,86.89132385253906,0.2789327323436737
73,6.837176120281219,0.19998670183122152,33.627000427246095,55.492674350738525,73.33211364746094,87.36831359863281,0.04364498220384118
74,6.939298701286316,0.24982637912034983,33.639250087738034,45.316239500045775,82.85713958740234,87.08272552490234,0.09339667148888109
75,6.8259605884552,0.07706045678933147,33.652001190185544,51.69474935531616,82.81684799194336,86.2280481338501,0.0
76,6.6605502486228945,-0.12868716008961195,33.6657488822937,52.75335779190063,78.94871845245362,80.96693115234375,0.02837821897119281
77,6.5456099033355715,-0.23697718605399126,33.676749515533444,46.001831722259524,71.13552856445312,72.66004943847656,0.0
78,6.4608447432518,-0.26600266098976133,33.69074878692627,47.731990337371826,69.6996337890625,69.53209228515625,0.037179058976471384
79,6.397595143318176,-0.2351875346153974,33.701500511169435,52.8095242023468,72.5653263092041,69.5193603515625,0.017601680010557164
80,6.349261486530304,-0.17862303517758843,33.709999084472656,55.55006093978882,73.93406829833984,70.28061332702637,0.10489164348691696
81,6.299401819705963,-0.14505062289535994,33.71900100708008,45.23931612968445,73.99145126342773,71.64461402893066,0.004310615547001358
82,6.255836653709411,-0.12443506866693492,33.729499626159665,53.83577508926392,72.88461227416992,75.81871585845947,0.0
83,6.215628528594971,-0.11182001288980244,33.7400016784668,54.5341878414154,75.72588748931885,79.23683948516846,0.0
84,6.181981861591339,-0.09948349129408593,33.7475004196167,45.66971893310547,74.0952362060547,80.58299407958984,0.0
85,6.162755239009857,-0.07767702043056482,33.757998657226565,50.82417554855347,75.47130584716797,85.83536739349366,0.0
86,6.300851452350616,0.08231693577690746,33.7709997177124,42.7191698551178,80.2979253768921,89.53364868164063,0.0
87,6.599360668659211,0.34669488593935965,33.782999420166014,49.145909667015076,85.30463790893555,88.58921661376954,0.0
88,6.7839212894439695,0.43557099625468254,33.793750286102295,48.06898655891418,86.2710599899292,82.55739116668701,0.0
89,6.685193932056427,0.226422481611371,33.80099945068359,48.6892548084259,82.37362518310547,75.98953895568847,0.004310615547001358
90,6.5252769708633425,-0.019329744578863023,33.81200103759765,47.99511609077454,67.24053764343262,73.35624408721924,0.012931846641004075
91,6.423650336265564,-0.17268110234290357,33.8227502822876,58.51404218673706,57.683760452270505,73.79931182861328,0.11908075381070371
92,6.348879969120025,-0.23490208871662613,33.83625078201294,53.86507951668464,58.94383430480957,74.97723617553712,0.19397769495844838
93,6.307031488418579,-0.19902103357017037,33.840500068664554,49.485958677902815,67.7674015045166,77.47066650390624,0.4046590305864811
94,6.31481363773346,-0.10083313225768505,33.8512487411499,39.10683751106262,98.93101558685302,83.8838996887207,0.030533527024090273
95,6.6352198958396915,0.2491825743578374,33.86000061035156,48.736263799667356,65.50427284240723,94.32889938354492,0.0
96,6.924993169307709,0.470123378187418,33.868499183654784,50.65201463699341,59.44322204589844,97.48171997070312,0.0
97,6.811578714847565,0.2567695379257202,33.869998931884766,55.691086769104004,55.5067138671875,90.94074993133545,0.0
98,6.626255083084106,-0.0053852515615289975,33.87650032043457,46.7539680480957,45.77777786254883,87.69366760253907,0.0
99,6.6272469639778135,-0.06456753856364225,33.883750438690186,52.449328374862674,50.01465311050415,90.67534980773925,0.004310615547001358
100,6.878604984283447,0.12592724068090316,33.88999938964844,45.95177063941956,57.57387104034424,90.81745834350585,0.0
101,6.974166083335876,0.19300552830100054,33.88999938964844,46.34737439155579,65.35225801467895,83.60109920501709,0.0
102,6.830462062358857,0.04533515323128083,33.89900131225586,49.83150162696838,66.41758270263672,75.59654083251954,0.0
103,6.682027661800385,-0.1103423191234469,33.90025148391724,53.843711853027344,59.880343437194824,73.24679870605469,0.0
104,6.590166962146759,-0.20831055976450438,33.90999984741211,50.20879125595093,56.34676532745361,73.97290267944337,0.012931846641004075
105,6.517914342880249,-0.24225812479853626,33.91149959564209,53.233211278915405,50.67460250854492,77.08833122253418,0.018679334037005883
106,6.465536975860596,-0.20186809971928593,33.91999816894531,48.00732607841492,49.459096145629886,82.79845638275147,0.027659783698618396
107,6.439367401599884,-0.13592841513454912,33.91999816894531,54.27167301177978,55.807082176208496,89.70038757324218,0.0
108,6.435514450073242,-0.07689318340271707,33.929250144958495,43.482906103134155,61.00976848602295,92.28016052246093,0.0
109,6.424031805992127,-0.04839559122920033,33.93000030517578,45.556165885925296,67.84371185302734,87.0370376586914,0.0
110,6.364673280715943,-0.07658107858151193,33.93000030517578,48.78876676559448,70.65995197296142,77.08333396911621,0.0
111,6.311151444911957,-0.09877680949866768,33.93000030517578,49.22893786430359,66.38034420013427,71.0526309967041,0.0
112,6.2967315196990965,-0.08378040492534633,33.938498878479,55.58363828659058,63.48901176452637,68.32950115203857,0.0
113,6.265678858757019,-0.08459146935492749,33.939998626708984,53.443223285675046,63.00671577453613,67.06859169006347,0.0
114,6.220015573501587,-0.09180096350610252,33.939998626708984,50.639194059371945,60.595237255096436,67.59398555755615,0.0
115,6.182020044326782,-0.09026210382580754,33.939998626708984,45.94566507339478,57.09890251159668,70.8696044921875,0.03592179641127583
116,6.163441860675812,-0.0758979426696896,33.939998626708984,57.67216162681579,59.23809471130371,78.5326099395752,0.0352033609524369
117,6.342509210109711,0.11900346751208415,33.94825038909912,51.912698316574094,68.12942733764649,85.74774932861328,0.018679334037005883
118,6.870441269874573,0.5847674019634723,33.95000076293945,39.835165083408356,77.82661437988281,90.14483184814453,0.031431571580469574
119,7.332720398902893,0.8708283334970475,33.95000076293945,50.84798531532287,82.60439605712891,88.87704467773438,0.03448492512106893
120,7.703863620758057,0.9774486199021339,33.95000076293945,54.59096446037292,84.13919658660889,84.37929439544678,0.0
121,7.985015404224396,0.9216576382517815,33.95000076293945,44.31501812934876,62.73015832901001,82.54987812042236,0.0
122,8.020912873744965,0.5979884937405586,33.95000076293945,53.79242963790894,65.69535856246948,82.60354709625244,0.0
123,7.8116320967674255,0.12178500501904636,33.95000076293945,69.19169716835022,71.34676132202148,82.46604042053222,0.06914945747703309
124,7.54505295753479,-0.2561183651909232,33.95325021743774,23.458485938049854,74.48107147216797,80.8080825805664,0.11674583442509172
125,7.33127076625824,-0.4522362001240253,33.959999084472656,57.71611728668213,74.48107147216797,80.8080825805664,0.004310615547001358
126,7.201643478870392,-0.46003043800592425,33.959999084472656,52.71184377670288,66.22893695831299,79.90305309295654,0.0
127,7.176770901679992,-0.3174044229090213,33.959999084472656,45.12759447097778,68.41330909729004,80.45944461822509,0.0
128,7.117374193668366,-0.22205843999981875,33.959999084472656,56.18437123298645,69.6849817276001,84.52692604064941,0.0
129,7.015747547149658,-0.2030980017036199,33.966000366210935,44.439560651779175,75.67521629333496,88.20816497802734,0.0
130,6.919118297100067,-0.206618832796812,33.970001220703125,56.47435874938965,78.11477355957031,87.82879257202148,0.0
131,6.82985166311264,-0.2188882809132337,33.971251010894775,42.10683753490448,76.66544876098632,83.82476768493652,0.0
132,6.770416867733002,-0.20087810829281802,33.97999954223633,53.49938941001892,74.8339418411255,83.04751682281494,0.0
133,6.725783550739289,-0.1644149005413055,33.982500076293945,44.96581220626831,76.6929193496704,84.8398624420166,0.0
134,6.679052090644836,-0.1382903221994638,33.9900016784668,56.07631258964538,76.9035415649414,86.40052719116211,0.0
135,6.635105443000794,-0.12048816736787553,33.99675054550171,44.865689754486084,77.12820472717286,86.7308422088623,0.0
136,6.591540241241455,-0.11188910622149702,34.00399932861328,45.78693513870239,77.20573863983154,84.51626052856446,0.0
137,6.537026584148407,-0.11974230222403999,34.0099983215332,52.881563091278075,76.34737663269043,79.51473789215088,0.0
138,6.495674014091492,-0.11469472479075189,34.01549949645996,48.115994930267334,70.99878005981445,76.29001693725586,0.0
139,6.457296931743622,-0.10806112643331285,34.02599945068359,46.611721658706664,73.89987640380859,78.56588287353516,0.0
140,6.410718071460724,-0.11014621537178751,34.03650016784668,57.06593422889709,74.59096221923828,82.06510925292969,0.0
141,6.372951447963715,-0.10263338536024089,34.04425020217896,45.28388271331787,74.81074523925781,83.44939804077148,0.0
142,6.352389621734619,-0.08336814418435091,34.05174961090088,52.37973165512085,71.74359130859375,84.77087478637695,0.0
143,6.316263377666473,-0.08308068271726367,34.060001373291016,41.35958480834961,74.81074523925781,86.55076599121094,0.0
144,6.429868507385254,0.05576655238728563,34.069499778747556,56.500000429153445,78.2564130783081,88.52544803619385,0.0
145,6.704000997543335,0.30184388458728784,34.07975177764892,43.43589739799499,78.96764316558838,86.58208084106445,0.0
146,6.7202520847320555,0.24846404567360875,34.08825044631958,46.82783899307251,80.79548320770263,81.30509090423584,0.0
147,6.59501177072525,0.06485071108327244,34.099998474121094,46.96459102630615,80.15262222290039,77.47915077209473,0.06160587854683397
148,6.520622885227203,-0.0523319277912378,34.10825023651123,56.992063331604,69.8009744644165,78.06244258880615,0.023169558495283103
149,6.597491371631622,-0.014878274779766786,34.11899909973145,45.6587299823761,69.56654357910156,78.04918670654297,0.0
150,6.695379507541657,0.0655320954509079,34.129750919342044,48.18925518989563,69.38949737548828,76.68705711364746,0.0
151,6.631214332580567,0.014480541771990818,34.140749549865724,56.52564096450806,65.79792556762695,75.6639497756958,0.0
152,6.536034727096558,-0.06526912888512013,34.150001525878906,46.579364681243895,58.83394479751587,75.56199073791504,0.0
153,6.463400673866272,-0.12733410336077208,34.158250141143796,51.03785116672516,58.854701614379884,77.25951919555663,0.08693074546754356
154,6.420941805839538,-0.14891037270426746,34.165498924255374,63.96581220626831,74.31013259887695,79.65822105407715,0.11512935608625405
155,6.467444396018982,-0.05570026630593927,34.16999816894531,36.72466394924559,68.2283260345459,81.06049118041992,0.14745897147804493
156,6.809251689910889,0.29601116068661215,34.17699966430664,56.43223466873169,69.97008380889892,83.89105815887451,0.178890542499721
157,7.113406801223755,0.5197856158018113,34.18000030517578,39.16056144237518,58.423687267303464,85.73548049926758,0.10417320746928446
158,7.17616046667099,0.45006352216005324,34.18824892044067,59.79304037094116,74.02136878967285,86.23721714019776,0.003951397538185115
159,7.089754915237426,0.2239513019099831,34.189998626708984,46.29670333862305,78.19902191162109,84.32328014373779,0.0
160,7.024025690555573,0.0335297075420385,34.19624996185303,42.370574188232425,71.00854797363282,80.611376953125,0.0
161,6.919919431209564,-0.14235619232058522,34.200500679016116,58.2875458240509,74.44688510894775,78.20304088592529,0.0
162,6.854266440868377,-0.18685247935354707,34.209999084472656,48.98656911849976,75.26251220703125,78.8879222869873,0.0
163,6.892033159732819,-0.09064549887552854,34.209999084472656,45.05311336517334,72.17704486846924,80.60626373291015,0.0
164,6.867465722560882,-0.06573673374950881,34.21900100708008,53.51221000566147,68.02441692352295,84.50084991455078,0.0014368718490004526
165,6.793420219421387,-0.09457550179213282,34.229499626159665,42.474358953302726,74.33577613830566,86.52289237976075,0.00574748739600181
166,6.735320591926575,-0.1101839361712336,34.230749702453615,59.27655686624348,90.8913345336914,86.26887512207031,0.024426821433007694
167,6.6648228645324705,-0.14516459330916404,34.2400016784668,24.183150217635557,90.8913345336914,86.26887512207031,0.0
168,6.619502866268158,-0.14421680532395836,34.24475088119507,61.22283225818537,90.8913345336914,86.26887512207031,0.0434653732925653
169,6.611720561981201,-0.09675640743225808,34.25,58.85286952303723,91.78144340515136,86.2132173538208,0.055499175004661026
170,6.600772106647492,-0.06395714432001111,34.25,56.35470070908777,94.84737396240234,82.04358921051025,0.03825671281665559
171,6.539964020252228,-0.08616703357547517,34.25974836349487,21.339438487403093,93.58241729736328,69.97042541503906,0.0
172,6.443945145606994,-0.14108729045838114,34.26399917602539,56.035409099282695,88.52259063720703,63.62672424316406,0.0
173,6.455008089542389,-0.08803709942294513,34.27000045776367,71.780220079422,88.52259063720703,63.62672424316406,0.0
174,6.604129159450531,0.07635672497563059,34.27824907302856,64.53052461147308,78.7533576965332,62.98400459289551,0.023708385601639726
175,6.563501369953156,0.03710227025003403,34.279998779296875,32.90048879142851,69.9145278930664,62.40249633789064,0.023349167965352517
176,6.451498472690583,-0.05969187295995647,34.279998779296875,38.380952436989176,69.9145278930664,62.40249633789064,0.027659783512353875
177,6.621257638931274,0.10618026942247523,34.279998779296875,22.941392163280398,64.37484645843506,65.53835258483886,0.0
178,6.825388348102569,0.24706435985863204,34.28750038146973,75.24297904968262,61.39194107055664,67.22689056396484,0.0
179,6.814210963249207,0.17720434516668315,34.29175062179566,75.78205099105836,61.39194107055664,67.22689056396484,0.008441622182726856
180,6.7276146650314335,0.05599384785600701,34.29999923706055,57.45299191782251,61.39194107055664,67.22689056396484,0.17457992434501643
181,6.596575832366943,-0.10823292373679574,34.30925121307373,36.833943779813126,61.39194107055664,67.22689056396484,0.06519805993884797
182,6.638538789749146,-0.08154478549549819,34.32024974822998,47.31562864310108,64.25275030136109,77.41457557678223,0.15679863654077048
183,6.875820136070251,0.1517071802169084,34.32875156402588,55.28693512789905,64.85958862304688,77.45761413574219,0.2774958658963441
184,6.829050552845001,0.09488701047448556,34.31999969482422,31.473748442111535,64.85958862304688,77.68892440795898,0.4351925544440746
185,6.884937572479248,0.1446888840931933,34.322500228881836,75.94627620028332,54.69108905792236,77.87151336669922,0.12572628445923323
186,7.426183354854584,0.5876997016370297,34.33300132751465,54.141025753133,30.964590072631843,74.52913627624511,0.11890114340931175
187,7.566721045970917,0.5360806539654732,34.346749019622806,65.1514042685274,30.964590072631843,65.00149879455566,0.0558583933860063
188,7.500228929519653,0.3180695064365863,34.35824985504151,50.57509160041809,30.964590072631843,60.94464111328125,0.09950337465852492
189,7.496490371227265,0.18970022499561306,34.37149925231934,61.23565359115601,30.964590072631843,60.94464111328125,0.02298994958400724
190,7.499847459793091,0.05609724149107929,34.38200073242187,29.992673993110657,30.964590072631843,60.94464111328125,0.02748017460107801
191,7.567255139350891,0.046358488965779474,34.38999938964844,36.78449320793152,30.964590072631843,60.94464111328125,0.06807180363684887
192,7.599642980098724,0.07434430033899839,34.39975147247314,51.80402917861939,43.07448263168335,58.92958393096924,0.0
193,7.8109072804450985,0.2496741663664579,34.401001358032225,42.899878120422365,39.472528076171876,57.4343376159668,0.0
194,7.787026596069336,0.16000020010396834,34.40999984741211,49.418803691864014,31.16117172241211,60.59890785217285,0.0
195,7.591441094875336,-0.07458275559038155,34.418248462677,56.70879077911377,30.451770305633545,59.429508686065674,0.0
196,7.433469665050507,-0.22615802139043803,34.41999816894531,44.32112340927124,24.56898636817932,55.02278308868408,0.0
197,7.317728197574615,-0.30123202353715894,34.426249504089355,50.32234449386597,15.75091552734375,57.775638580322266,0.0
198,7.233077502250671,-0.30009794905781745,34.43000030517578,53.37179479598999,26.150793743133544,52.49139223098755,0.0
199,7.158459711074829,-0.24761530794203282,34.43000030517578,43.632478618621825,33.5531120300293,56.52378845214844,0.0
200,7.103984177112579,-0.1903525590896606,34.43199996948242,50.75518884658813,33.88583517074585,57.82418251037598,0.0
201,7.049050891399384,-0.15968544743955132,34.439998626708984,50.610500526428225,35.74786376953125,69.80977306365966,0.01724246218800543
202,6.984962046146393,-0.1524191685020923,34.439998626708984,47.404761695861815,34.266178131103516,75.53399658203125,0.0
203,6.950361680984497,-0.1261526588350534,34.439998626708984,50.48351631164551,33.485959434509276,78.31164245605468,0.0
204,6.894665396213531,-0.12791087031364437,34.44424953460693,51.239926433563234,38.45116062164307,79.94574222564697,0.0
205,6.850527966022492,-0.12049509957432743,34.45175046920777,52.66361408233642,38.15689792633057,80.6495807647705,0.0
206,6.800210642814636,-0.11971878875046964,34.46224956512451,44.85653247833252,33.766177320480345,81.06812705993653,0.0
207,6.844424283504486,-0.03494610979396382,34.470001220703125,59.5378512264695,30.207571029663093,81.57738189697265,0.17242461722344155
208,6.956732368469238,0.09008933054283257,34.473500633239745,13.308302770601586,30.207571029663093,81.74386596679688,0.05478073935955759
209,7.084833836555481,0.20038622058928007,34.47275075912476,86.89377278718166,30.4017101764679,81.75223045349121,0.10327516272664064
210,7.325090765953064,0.37343431338667865,34.47150096893311,32.290598346153274,32.79609298706055,81.85539245605469,0.10848382581025359
211,7.466544103622437,0.39714101329445833,34.47999954223633,36.8333333928138,32.79609298706055,74.81528091430664,0.05316425841301674
212,7.357020783424377,0.16294027888216073,34.48600082397461,84.79059818410315,32.79609298706055,64.95256309509277,0.029096655361354327
213,7.171010494232178,-0.09272750266827638,34.4900016784668,55.06898639202118,32.79609298706055,61.60164260864258,0.015805590339004978
214,7.066026794910431,-0.21800088509917254,34.49400100708008,19.039682535408065,32.79609298706055,61.60164260864258,0.008621231094002715
215,6.987250888347626,-0.26001826673746103,34.50149974822998,52.74725255966187,50.0146511554718,59.9283844947815,0.06358157768845554
216,6.924878692626953,-0.23070266768336292,34.5152494430542,44.87362642288208,23.63370013237,70.84542694091797,0.05118856001645322
217,6.94887387752533,-0.10446508042514321,34.528998947143556,54.7393159866333,34.72038974761963,81.92715892791747,0.0
218,7.25379194021225,0.23298239707946772,34.53650016784668,52.976800727844235,37.50793647766113,85.753253364563,0.0
219,7.387501156330108,0.31766197010874747,34.540000915527344,41.65689859390259,37.9487190246582,86.3930892944336,0.0
220,7.2211370944976805,0.09464520698820703,34.540000915527344,48.94871768951416,35.94078140258789,86.80687103271484,0.0
221,7.111842703819275,-0.054735171570791816,34.540000915527344,54.4615385055542,28.649572372436523,87.30471725463867,0.0
222,7.065416383743286,-0.13506123088300223,34.54549999237061,54.54822959899902,28.08302879333496,87.08272552490234,0.0
223,6.9934690117836,-0.19520184621214864,34.54999923706055,47.372405433654784,28.170940780639647,87.06380844116211,0.007184359245002263
224,6.934453856945038,-0.1742858106270432,34.54999923706055,43.32051258087158,27.61416358947754,87.0706298828125,0.00574748739600181
225,7.102496421337127,0.057886756226071145,34.54999923706055,48.31929187774658,26.737484550476076,87.47001876831055,0.0
226,7.420384848117829,0.3520904317498207,34.55174961090088,49.69902305603027,30.53540940284729,85.86057815551757,0.0014368718490004526
227,7.43999297618866,0.2982490986585617,34.560001373291016,53.3693528175354,29.73687424659729,83.14276313781738,0.039154758304357495
228,7.312158572673797,0.10167424448300148,34.56275091171265,52.62698411941528,29.10866928100586,82.4175796508789,0.0
229,7.199430859088897,-0.07045913186739194,34.56999969482422,43.5097677230835,28.772283124923707,82.09756565093994,0.0
230,7.083155310153961,-0.21641494445502754,34.56999969482422,51.18498163223266,28.568986701965333,84.52509422302246,0.0
231,6.9906460523605345,-0.2609746940433979,34.56999969482422,48.73260087966919,30.29304027557373,87.18095016479492,0.0
232,6.918431663513184,-0.23261658586561676,34.56999969482422,54.93894958496094,31.273504781723023,87.61788940429688,0.0
233,6.859912407398224,-0.1938930485397577,34.57575092315674,45.996947288513184,32.33211135864258,86.7052001953125,0.0
234,6.817873203754425,-0.15211906433105465,34.58000183105469,46.1642246723175,32.33211135864258,86.7052001953125,0.0
235,6.775605010986328,-0.12603761870414015,34.58000183105469,54.60073261260986,35.413919830322264,84.55967216491699,0.0
236,6.736884677410126,-0.1089408084750175,34.58000183105469,47.610500690341,36.86141672134399,83.64757919311523,0.0
237,6.718497276306152,-0.08187486417591569,34.58800048828125,52.125152587890625,36.58119583129883,83.33333587646484,0.0
238,6.708082914352417,-0.05763687929138537,34.59000015258789,46.64224672317505,49.5299147605896,82.73401908874511,0.0
239,6.671460616588592,-0.06494541550055141,34.59599914550781,52.70940141677856,52.19780349731445,79.68066596984863,0.035921796225011314
