sec,SCL,SCR,TEMP,BVP,PVA,HR,MOTION
0,1.3407162725925446,0.0010000000474974,34.42499923706055,50.13125782012939,0.0,30.0,0.0
1,1.3236259073019028,0.04377146922633978,34.43000030517578,50.2307692527771,0.0,30.0,0.0
2,1.3100833147764206,0.044923399342223974,34.4272497177124,50.20940170288086,0.0,30.0,0.0
3,1.2984099864959717,-0.03339256318286055,34.41349925994873,49.88156299591064,2.912087917327881,38.58673505783081,0.0
4,1.2871181339025497,-0.03184577971696847,34.40600051879883,49.76007289886475,11.680097699165344,61.023501014709474,0.0
5,1.2761696249246597,-0.029009607853367852,34.40775022506714,50.09279642105103,11.998779106140137,60.96895217895508,0.0
6,1.266251102089882,-0.0268584284000098,34.40999984741211,48.914529705047606,16.600732421875,63.420904541015624,0.0
7,1.2609103918075562,-0.02160027478821568,34.41224946975708,49.86874265670777,21.81196584701538,65.95118560791016,0.0
8,1.2603381812572478,-0.013422296475619013,34.41999816894531,49.43894987106323,24.581196784973145,65.32312965393066,0.0
9,1.2546922028064729,-0.0121633094735443,34.41999816894531,48.49511594772339,24.307692337036134,64.04382019042968,0.0
10,1.243362233042717,-0.01697868444025514,34.41999816894531,50.46520128250122,22.829059505462645,62.94845466613769,0.0
11,1.2353892624378204,-0.01853133779950437,34.41999816894531,51.10134296417236,23.755799865722658,62.139077758789064,0.0
12,1.2299340695142746,-0.01789972716942427,34.41999816894531,50.65689840316772,24.190476608276366,60.589464569091795,0.0
13,1.2250892609357833,-0.01615237586665895,34.42900009155274,49.702685832977295,24.130036544799804,59.41220397949219,0.0
14,1.2201300263404846,-0.013912913389503909,34.43974866867065,49.68925533294678,23.880952739715575,58.7421272277832,0.0
15,1.2144459336996078,-0.013336542830802461,34.443999481201175,50.393162155151366,25.385225296020504,58.81714239120485,0.0
16,1.208952596783638,-0.013351429509930271,34.45000076293945,50.639804458618165,26.633089303970337,59.15723896026611,0.0
17,1.202696305513382,-0.014249705965630669,34.45000076293945,50.832722663879395,26.859584045410156,60.91580657958984,0.0
18,1.1955626070499419,-0.015746553358621847,34.45899925231934,48.927349948883055,26.462758922576903,62.4482120513916,0.0
19,1.1907178074121476,-0.014605729863978878,34.46700048446655,49.62026824951172,25.755799865722658,64.42107391357422,0.0
20,1.1856441140174865,-0.013906696275807864,34.48400039672852,48.32234411239624,24.841269969940186,65.57991123199463,0.0
21,1.180112624168396,-0.01368725756183263,34.49775037765503,49.5085470199585,25.597068786621094,65.23129425048828,0.0
22,1.1748100101947785,-0.013248207140713873,34.50824861526489,50.33760662078858,24.455432939529416,63.51009044647217,0.0
23,1.1693167060613632,-0.013354977127164547,34.51900024414063,49.75274686813354,23.711843490600582,62.569800567626956,0.0
24,1.1642429888248442,-0.013198381103575175,34.532749557495116,48.59401721954346,23.144077587127686,63.724731826782225,0.0
25,1.1659215062856672,-0.007225786129129072,34.54075078964233,51.451770877838136,23.650793600082398,66.30610084533691,0.0
26,1.1820581704378128,0.011388251486641781,34.554250144958495,48.94261283874512,24.06532278060913,69.2009084701538,0.0
27,1.2128055721521378,0.03805701495148234,34.56975040435791,49.64163589477539,22.643467521667482,70.43234062194824,0.0
28,1.2182989180088044,0.034175651706755086,34.58250141143799,49.51709423065186,23.993285083770754,70.43234062194824,0.0
29,1.2145985543727875,0.020814839610829878,34.59324960708618,48.355311489105226,25.396825790405277,68.99149208068847,0.0
30,1.2215415060520172,0.01695275232195848,34.603249168396,49.179487228393555,23.68070845603943,67.65944709777833,0.0
31,1.213797429203987,6.702585669700251e-05,34.618249607086184,50.81013422012329,22.363858222961426,68.54038543701172,0.0
32,1.2071596324443816,-0.009058680082671296,34.634750270843504,51.6697190284729,22.523199033737182,68.63387565612793,0.0
33,1.198042231798172,-0.01497209835797544,34.645250511169436,49.9847375869751,21.916361713409422,67.18828182220459,0.0
34,1.1873226135969162,-0.021181836118921597,34.65600051879883,48.72466421127319,20.9896210193634,67.76021728515624,0.0
35,1.1786629855632782,-0.022658025985583627,34.66974821090698,49.662393283844,22.752136039733884,68.99537734985351,0.0
36,1.172025203704834,-0.020759423542767726,34.683999633789064,51.40415153503418,23.62515287399292,69.67306976318359,0.0
37,1.164586305618286,-0.019740229519084055,34.69424953460693,49.24786319732666,22.222222328186035,70.38748054504394,0.0
38,1.157605195045471,-0.01835934207774694,34.70175046920777,49.61477394104004,23.49328498840332,70.94112739562988,0.0
39,1.1504715144634248,-0.01774773392826314,34.709999084472656,47.63186817169189,25.401709747314456,69.6024616241455,0.0
40,1.1436048448085785,-0.017472382215782945,34.7195011138916,48.43406572341919,23.95787572860718,67.04731311798096,0.0
41,1.1378444761037827,-0.016267658420838375,34.733750343322754,52.07142877578735,23.28998703956604,66.75247974395752,0.0
42,1.1324655771255492,-0.015080373524688129,34.74725046157837,51.23504295349121,24.037851619720463,70.3960952758789,0.0
43,1.1264000326395034,-0.014780459785833902,34.75824861526489,48.278998947143556,22.80830307006836,71.94411163330078,0.0
44,1.1231193274259568,-0.01222631318960335,34.7685001373291,48.82844953536987,22.7405366897583,71.09919567108155,0.0
45,1.1172444850206376,-0.012766755605116444,34.778998947143556,50.29304056167602,23.461538982391357,66.16821250915527,0.0
46,1.1120563268661499,-0.012690268247388264,34.790500736236574,49.83882827758789,24.175825119018555,64.38678150177002,0.0
47,1.1100726127624512,-0.009849298582412265,34.79999923706055,49.09890127182007,24.2368745803833,65.33117198944092,0.0
48,1.1063341230154038,-0.009411058132536662,34.80475025177002,51.257631587982175,23.882783126831054,66.79780960083008,0.0
49,1.1022904127836226,-0.009395567141473254,34.812250995635985,49.24908437728882,23.47741069793701,69.9698272705078,0.0
50,1.0970259577035903,-0.010493646189570383,34.8260009765625,49.94078149795532,22.896214485168457,72.46638374328613,0.0
51,1.0936689376831055,-0.009980928269214885,34.84025011062622,48.96275930404663,24.356531858444214,71.76853084564209,0.0
52,1.0911130100488664,-0.008841685880906832,34.853999328613284,49.4627592086792,26.517703819274903,66.50035247802734,0.0
53,1.08699304163456,-0.009090281557291701,34.861500358581544,51.012210273742674,25.538460731506344,61.51525039672852,0.0
54,1.0842081964015962,-0.008101664506830222,34.869998931884766,50.263125801086424,25.435896968841554,59.64809112548828,0.0
55,1.0810037702322006,-0.007941709330771072,34.878750801086426,49.014041328430174,25.844932746887206,60.34855957031251,0.0
56,1.0774559527635574,-0.008339131833054082,34.88649997711182,48.24908418655396,24.65995168685913,62.75750741958618,0.0
57,1.07322154045105,-0.009147219429723867,34.89700088500977,49.60439548492432,24.69963421821594,66.19551601409913,0.0
58,1.0705130100250244,-0.008347136632073622,34.90775022506714,50.08363857269287,28.656898021697998,68.12831974029541,0.0
59,1.0707037448883057,-0.005140974401729125,34.918248462677,51.45604391098023,29.325397539138795,65.04493293762206,0.0
60,1.0740226566791535,0.00029037140775471995,34.92900009155274,49.43894996643066,27.678876972198488,63.467384338378906,0.0
61,1.0818048596382142,0.008362128108274127,34.936499214172365,49.37973146438598,27.661172389984124,64.83124923706055,0.0
62,1.0791726380586624,0.004384953180851853,34.947000122070314,48.509768104553224,28.842490339279173,65.14665298461914,0.0
63,1.0666600525379182,-0.008347794821020164,34.957499504089355,49.22527456283569,28.352869033813477,64.41452522277832,0.0
64,1.0572374641895297,-0.015967848012223777,34.94800033569336,48.73321113586426,25.868131828308105,64.87937240600586,0.0
65,1.0548341274261475,-0.015080735832452721,34.935499382019046,49.400488185882566,24.427350807189942,65.8286693572998,0.0
66,1.0525834143161774,-0.012592141632921943,34.939998626708984,48.8528694152832,26.4627592086792,66.28127479553223,0.0
67,1.0480437457561493,-0.010761629138141821,34.988751602172854,49.90109910964966,26.96642303466797,65.3026782989502,0.0
68,1.047776699066162,-0.005971477157436265,34.99725046157837,51.04822978973389,25.004272937774658,64.64517211914062,0.0
69,1.0483489066362381,-0.00276785506284792,35.0049991607666,50.196581554412845,25.098901748657227,66.2928955078125,0.0
70,1.0470900535583496,-0.0025106384622631097,35.012248802185056,49.10927963256836,27.241757678985596,66.71805324554444,0.0
71,1.0433515340089798,-0.004446804366307277,35.02000045776367,50.01404142379761,27.237484216690063,65.62244510650635,0.0
72,1.0395748615264893,-0.00648252166574816,35.02974882125854,49.726495552062985,27.595849084854127,64.65187339782715,0.0
73,1.0362178176641463,-0.00785646792501206,35.037000274658205,48.358974361419676,26.121490287780762,65.13672065734863,0.0
74,1.0341959804296494,-0.007322639611083963,35.041500663757326,51.77350425720215,25.39010934829712,68.21998348236085,0.0
75,1.0298852503299714,-0.008457725087646339,35.04999923706055,49.05250282287598,28.967032337188726,70.37098808288575,0.0
76,1.0261467695236208,-0.00873754704371089,35.05925121307373,48.08791189193725,27.948718357086182,70.59036216735839,0.0
77,1.0242774784564972,-0.007314209395553863,35.06974973678589,48.41575078964233,25.71245493888855,70.86908321380615,0.0
78,1.0283593356609346,-0.0008548875586711701,35.033750247955325,48.7307692527771,25.013431358337403,71.18507766723633,0.0
79,1.03972747027874,0.010823327442631082,35.021500205993654,50.57753381729126,23.97374849319458,70.76694355010986,0.0
80,1.0476622581481934,0.016276745568029542,35.043499088287355,49.899267768859865,18.929791975021363,71.09938621520996,0.0
81,1.0489974558353423,0.01349933627061542,35.09274969100952,50.80341901779175,17.031746101379394,73.60323295593261,0.0
82,1.051324486732483,0.010764445515815122,35.099998474121094,49.56349220275879,15.973748326301575,73.41837882995605,0.0
83,1.0481582134962082,0.0027255323391215808,35.103999328613284,51.368742084503175,15.971917486190796,72.45839309692383,0.0
84,1.0438093215227127,-0.004066945688100487,35.11000061035156,50.383394718170166,16.122100043296815,74.05302734375,0.0
85,1.039841890335083,-0.00745981081854547,35.11000061035156,48.95482301712036,16.68070783615112,75.70445823669434,0.0
86,1.0361796975135804,-0.009075327659957052,35.11000061035156,50.15934076309204,17.11843776702881,76.33596992492676,0.0
87,1.0353785812854768,-0.00683558526798146,35.11924905776978,48.237484550476076,16.843101835250856,76.94173183441163,0.0
88,1.038010835647583,-0.0015833604862563726,35.119998931884766,50.232600688934326,18.67155122756958,77.16548538208008,0.0
89,1.0372096955776215,-0.000635007738998177,35.119998931884766,49.422466564178464,20.678877258300783,75.41493225097656,0.0
90,1.0502945095300675,0.012271060410421305,35.119998931884766,50.09401721954346,20.573260164260866,73.05983047485351,0.0
91,1.0624637335538865,0.02040923936292525,35.12224941253662,49.170329570770264,20.650183153152465,72.81553649902344,0.0
92,1.0535370975732803,0.0067458392228615565,35.123999786376956,50.59218521118164,21.30830316543579,72.14734573364258,0.0
93,1.0448011845350265,-0.004285613270803834,35.12975101470947,49.0836386680603,22.177045774459838,70.08315505981446,0.0
94,1.0390789479017257,-0.010919925977941537,35.130001068115234,48.0152624130249,21.958486318588257,70.93590869903565,0.0
95,1.035035252571106,-0.013811401021666763,35.12550010681152,50.470085334777835,23.95604419708252,72.37799835205078,0.0
96,1.0324030011892318,-0.01160952264908696,35.119998931884766,51.18681316375732,24.732600927352905,70.44366912841797,0.0
97,1.0291222840547563,-0.009214696858543843,35.12900085449219,49.63125782012939,24.24908447265625,69.7120750427246,0.0
98,1.0270622968673708,-0.007135010883212035,35.07299976348877,47.76312570571899,24.04395627975464,70.30739288330078,0.0
99,1.0332804262638091,0.0015848332819586898,35.06999969482422,48.30341901779175,25.001221466064454,70.5634262084961,0.0
100,1.0385830223560333,0.006795331672765262,35.10149955749512,49.34310131072998,25.730158376693726,68.566259765625,0.0
101,1.0334711521863937,0.0012291492501390075,35.13999938964844,50.76068382263183,24.824786853790282,66.38354034423828,0.0
102,1.0288171112537385,-0.003511176540632695,35.136250019073486,52.48412714004517,24.41636209487915,65.55620651245117,0.0
103,1.0233237773180008,-0.00861559297190973,35.13999938964844,48.37240533828735,23.420023822784422,68.31213684082032,0.0
104,1.0188222974538803,-0.011434791353531122,35.13999938964844,48.51159963607788,23.580585718154907,70.85711574554443,0.0
105,1.0152745187282561,-0.010916466079652246,35.14099960327148,49.755188941955566,25.089132690429686,69.67713470458985,0.0
106,1.0126804113388062,-0.00907408058410505,35.150001525878906,50.28815593719482,26.18803358078003,64.90087375640869,0.0
107,1.0116885900497437,-0.00626682667061681,35.15525064468384,50.60195369720459,26.26739854812622,62.3601957321167,0.0
108,1.0096667557954788,-0.005276866606436613,35.15999984741211,48.99633703231812,26.893161630630495,61.095836067199706,0.0
109,1.0065385758876801,-0.0058234047261066174,35.1632493019104,49.07631244659424,27.140414476394653,61.33488082885742,0.0
110,1.004593014717102,-0.0055175679037346905,35.16399917602539,49.33150177001953,27.05738639831543,62.11912498474121,0.0
111,1.0027238130569458,-0.005283963098190662,35.16999816894531,49.91880340576172,26.70451726913452,64.32746620178223,0.0
112,1.000854527950287,-0.005155800096690607,35.17524929046631,49.558607769012454,27.816850233078004,65.87429237365723,0.0
113,0.9967345118522644,-0.006803529022727117,35.18224992752075,49.306471061706546,29.199633884429932,64.98022556304932,0.0
114,0.9979171052575111,-0.0033613632789638,35.189998626708984,49.827228450775145,28.729547500610344,63.3115795135498,0.0
115,1.0146641492843629,0.013728821800032123,35.19374942779541,50.82905941009521,24.940170669555663,62.51304817199707,0.0
116,1.0670796811580658,0.05893693743273611,35.20000076293945,51.220390510559085,25.694749450683595,62.64357070922851,0.0
117,1.104388564825058,0.07862482592463489,35.20200042724609,49.386446952819824,26.251525402069092,63.10839891433716,0.0
118,1.0979796707630158,0.0512530804611742,35.209999084472656,47.61111116409302,25.240536880493163,65.78679962158203,0.0
119,1.084513396024704,0.01900378154823552,35.209999084472656,49.65873022079468,24.695970153808595,68.35466537475585,0.0
120,1.0763496845960616,-0.0043791187978058374,35.21374988555908,48.77777757644653,27.078143548965453,68.01213264465332,0.0
121,1.0701315253973007,-0.01734493242111051,35.221001052856444,50.10378532409668,27.404151916503906,65.24794921875,0.0
122,1.064180427789688,-0.018674978613853387,35.22999954223633,52.056165599823,26.93650851249695,63.34905576705934,0.0
123,1.0608615189790727,-0.013765403558500061,35.23575077056885,50.18009748458862,25.12332191467285,64.119580078125,0.0
124,1.0566270768642425,-0.011657275771722144,35.2400016784668,49.42429809570312,25.72405376434326,67.22726974487304,0.0
125,1.0524689614772798,-0.010667548025958182,35.24625062942505,48.80402936935425,27.12698369026184,68.74896564483643,0.0
126,1.045907461643219,-0.012509540724568013,35.25,48.81318683624268,26.108668518066406,69.49133186340332,0.0
127,1.0389263600111007,-0.014534442289732344,35.257748699188234,50.72405347824097,24.211232280731203,70.15240230560303,0.0
128,1.034806352853775,-0.01349697879049922,35.26499938964844,50.482295513153076,24.282661294937135,70.42873992919922,0.0
129,1.0311822891235352,-0.011997722461819592,35.272749996185304,49.23809547424317,26.13614139556885,69.23522472381592,0.0
130,1.0277489602565768,-0.010494651389308213,35.28324947357178,49.6153847694397,25.298534965515138,68.20020084381103,0.0
131,1.0249260097742083,-0.008723798114806358,35.29075078964233,48.866300392150876,25.28022003173828,67.70793628692627,0.0
132,1.021607106924057,-0.008135542785748785,35.29999923706055,48.840048694610594,26.130647134780883,67.30682163238525,0.0
133,1.0186315774917603,-0.007788834068924134,35.30199966430664,49.54761896133423,25.41513967514038,66.94574928283691,0.0
134,1.017983078956604,-0.005466228438308416,35.310001373291016,52.0390721321106,23.89865732192993,68.67399253845215,0.0
135,1.0171437948942184,-0.004165285680210162,35.31625032424927,49.79059858322144,24.566545009613037,69.38336715698242,0.0
136,1.016876745223999,-0.0023409729779813896,35.31999969482422,49.641025352478025,26.886445999145508,67.54147968292236,0.0
137,1.0161900728940965,-0.001798404526198235,35.32750129699707,49.691697120666504,26.741146945953368,66.461083984375,0.0
138,1.0122608125209809,-0.004587433720007492,35.33475103378296,49.39743576049805,26.459706449508666,66.2181770324707,0.0
139,1.0116885900497437,-0.0038348663656506124,35.34000015258789,48.96581192016602,26.857143020629884,66.45997924804688,0.0
140,1.0106967598199845,-0.003542960132472165,35.348998641967775,48.83760690689087,27.694750022888183,66.36449127197265,0.0
141,1.0064622789621354,-0.006109873333480152,35.349998474121094,51.17399263381958,25.943223810195924,66.24529151916504,0.0
142,1.0034867525100708,-0.006679779035039188,35.353999328613284,50.47802200317383,25.746032333374025,67.87801055908203,0.0
143,1.0019226789474487,-0.0058856430347077075,35.36000061035156,49.77533578872681,27.38095235824585,68.59985179901123,0.0
144,0.9989852651953697,-0.006632330664433495,35.36549968719483,48.470085334777835,27.30769157409668,68.20925521850586,0.0
145,0.9967726603150368,-0.006130869244225278,35.372999572753905,48.70207567214966,27.17399287223816,67.84722023010254,0.0
146,0.9935682296752931,-0.006624321744311561,35.380251026153566,49.93284511566162,27.610500526428222,67.67024211883545,0.0
147,0.9915845289826395,-0.006072883564047475,35.38999938964844,49.28815631866455,27.679486656188963,67.13226947784423,0.0
148,0.9908978566527369,-0.004510701034450863,35.39149971008301,50.91880331039429,27.59951114654541,67.01004161834717,0.0
149,0.9898296996951104,-0.0035821364726870775,35.400001525878906,50.172161197662355,27.340658950805665,68.96781311035156,0.0
150,0.9857478514313698,-0.0056821586913428776,35.40550060272217,50.166666984558105,27.57509117126465,69.96351013183593,0.0
151,0.9833826690912246,-0.005828458769246895,35.40999984741211,47.84187994003296,26.321733951568604,71.04267406463623,0.0
152,0.9836115598678589,-0.0039398114138747995,35.4107497215271,48.12820529937744,25.721611118316645,72.9601276397705,0.0
153,0.9802163869142533,-0.005441804579459085,35.41999816894531,49.56898641586304,27.042734146118164,74.02938232421874,0.0
154,0.9779274985194204,-0.00543261034181337,35.42474918365478,51.06654462814331,31.057386779785155,67.51214828491212,0.0
155,0.9771263808012007,-0.004093501230818175,35.43000030517578,51.07631254196167,31.4774112701416,63.651058959960935,0.0
156,0.9781182408332822,-0.0018471507792127751,35.43000030517578,49.82051258087158,29.977411127090456,64.02389259338379,0.0
157,0.9757530361413954,-0.0028703086340100777,35.43974866867065,47.89926738739014,26.759462118148804,67.52319774627685,0.0
158,0.9778512015938758,0.00037281096156221245,35.439998626708984,48.633088970184325,28.556776809692384,70.20296173095703,0.0
159,0.9804834127426147,0.00286660308192945,35.444749641418454,49.84798555374145,30.15018320083618,68.30906982421875,0.0
160,0.977164529263973,-0.0008057756951529848,35.45000076293945,49.66727752685547,30.23504328727722,65.85407619476318,0.0
161,0.9714804515242577,-0.005815560254268295,35.452750301361085,49.871794605255126,28.051282024383546,65.95113220214844,0.0
162,0.9689626693725586,-0.006842159060761277,35.459999084472656,49.108669471740725,26.188033676147462,67.75268249511718,0.0
163,0.9678182289004326,-0.006485788663849185,35.459999084472656,50.388888645172116,26.617826461791992,68.23861351013184,0.0
164,0.9646138042211533,-0.006912568805273573,35.46450004577637,50.63125743865967,25.49694719314575,67.36350517272949,0.0
165,0.9685811892151832,-0.00040477704988006735,35.470001220703125,49.02808275222778,24.332112121582032,67.80126953125,0.0
166,0.9691915601491928,0.0011672608838125275,35.470001220703125,49.443223762512204,26.930402755737305,68.67058715820312,0.0
167,0.964308612048626,-0.0031545634170469772,35.470001220703125,49.63492069244385,28.136751890182495,66.84337768554687,0.0
168,0.9624393418431284,-0.00390776218264359,35.470001220703125,51.59768009185791,27.78998756408692,65.21833305358886,0.0
169,0.9597689583897593,-0.005638821865431915,35.470001220703125,49.463369846343994,27.27777752876282,66.6525339126587,0.0
170,0.9602648854255678,-0.003822827903786625,35.47200088500976,48.794871997833255,28.32234420776367,68.85172729492187,0.0
171,0.9588152766227724,-0.0033022364194038797,35.47999954223633,48.9609281539917,27.894383192062378,69.91609363555908,0.0
172,0.957365655899048,-0.0030085404694545547,35.47999954223633,50.96764326095581,26.498167991638184,70.66352310180665,0.0
173,0.9577471405267717,-0.001467569527449035,35.47999954223633,47.7142858505249,24.699023675918582,73.41068840026855,0.0
174,0.9557634204626083,-0.00266782343314839,35.47999954223633,48.667276763916014,23.99633731842041,74.37364234924317,0.0
175,0.9525589942932129,-0.004708040354307693,35.47999954223633,49.72405347824097,23.41880416870117,73.64065170288086,0.0
176,0.9533219441771508,-0.002510219303076105,35.48225002288818,51.098290634155276,20.772283935546874,72.7564640045166,0.0
177,0.9717474892735481,0.015590168267954091,35.4900016784668,49.063491916656496,19.92673921585083,72.24586753845215,0.0
178,1.015808592736721,0.05219862489029762,35.4900016784668,50.45054941177368,19.8901104927063,70.69385318756103,0.0
179,1.0251167446374896,0.0480817672796547,35.4900016784668,50.841269969940186,19.597069358825685,68.76154670715331,0.0
180,1.0108874797821046,0.02100351187400517,35.49775037765503,48.94871816635132,20.38095207214355,68.7867935180664,0.0
181,0.9998245179653168,-0.00043833283707498256,35.5,51.021978092193606,23.725275325775144,70.98659133911133,0.0
182,0.9956663548946381,-0.01211671752389517,35.5,47.52930421829224,23.407204246520998,75.05350112915039,0.0
183,0.9940260052680971,-0.013866785052232414,35.502999496459964,47.80647134780884,22.797924566268918,79.02091522216797,0.0
184,0.9913556382060051,-0.010235635563731155,35.5099983215332,51.951159954071045,22.344322013854985,80.27214126586914,0.0
185,0.9848704472184181,-0.01070032590068873,35.5099983215332,49.62393140792847,21.278387832641602,76.0907112121582,0.0
186,0.9824671059846878,-0.008812677650712393,35.5099983215332,48.77655649185181,21.171550226211547,74.23728828430175,0.0
187,0.9808648824691772,-0.007299565104767635,35.5099983215332,49.80036640167236,22.365689277648926,73.47378253936768,0.0
188,0.9811700582504272,-0.004212566796923005,35.5099983215332,50.006715297698975,22.7411470413208,71.45489311218262,0.0
189,0.9792245402932167,-0.0036342083709313953,35.5099983215332,49.33638544082642,21.322344160079957,69.91136989593505,0.0
190,0.9772789746522902,-0.0036113902286160223,35.5099983215332,49.359584712982176,21.615994930267338,71.48057708740234,0.0
191,0.9754859969019888,-0.004011276859091545,35.5099983215332,49.479853534698485,23.456654739379882,71.56290473937989,0.0
192,0.9731208249926565,-0.004941577627323518,35.5099983215332,49.35164823532104,23.893773365020756,70.74913749694824,0.0
193,0.9709845378994941,-0.0052664284710771826,35.5099983215332,50.57020750045776,22.664225101470947,71.30898742675781,0.0
194,0.9692678570747375,-0.004976941883796775,35.5099983215332,50.1379732131958,23.240537691116334,73.70436019897461,0.0
195,0.9655675053596496,-0.006479301338549649,35.5099983215332,48.25091562271118,24.74847369194031,73.61319599151611,0.0
196,0.9644612103700638,-0.005283880617935168,35.5099983215332,47.98778953552246,23.931624174118042,71.81300354003906,0.0
197,0.9626682326197624,-0.004920646164100572,35.5099983215332,49.29120893478394,23.290598392486572,70.59777374267578,0.0
198,0.9627826780080797,-0.0029562542971688847,35.51825008392334,51.89377241134643,23.296703338623047,69.53812179565429,0.0
199,0.9588534265756609,-0.005055722588440352,35.52000045776367,50.80769205093384,23.96581153869629,67.88978424072266,0.0
200,0.9567552804946902,-0.00516622975701461,35.52000045776367,48.85531120300293,24.102563858032227,68.37772026062012,0.0
201,0.9540848970413208,-0.006024450296536035,35.51299896240234,48.684371376037596,24.366300106048584,71.40074310302734,0.0
202,0.9521775245666504,-0.005753812391776537,35.51474933624267,49.310745048522946,25.2313796043396,73.34483032226562,0.0
203,0.9521775245666504,-0.0036746206809766127,35.52000045776367,50.435897254943846,25.88339486122132,70.75009479522706,0.0
204,0.9517578914761543,-0.00224303567956663,35.52000045776367,49.37606859207153,25.514041328430174,69.14318809509277,0.0
205,0.9531693458557129,0.000133173806534595,35.52000045776367,49.29914569854736,26.0219783782959,68.08028106689453,0.0
206,0.9518341884016991,-0.000600714698884935,35.52000045776367,49.955433177947995,26.889498805999757,65.80069351196289,0.0
207,0.9492400929331779,-0.0027330501383402823,35.527749156951906,49.33577556610108,25.538461685180664,64.85814361572265,0.0
208,0.9475997090339658,-0.0035961440647951878,35.529998779296875,49.382173252105716,24.38644685745239,65.76281147003174,0.0
209,0.9475997090339658,-0.002750916150398505,35.529998779296875,48.58730182647705,24.81196613311768,67.1887107849121,0.0
210,0.9472945213317869,-0.0020492054230998673,35.529998779296875,48.41025629043579,24.995116519927983,66.74625129699707,0.0
211,0.9436704650521277,-0.0042932495591230125,35.529998779296875,52.71245441436768,23.262514925003053,66.06054878234863,0.0
212,0.9400082245469094,-0.006135152815841095,35.529998779296875,50.609889888763426,22.22710585594177,66.58860855102539,0.0
213,0.9392071068286896,-0.0052249247091821875,35.535249900817874,49.25030527114868,23.257631301879886,68.43427886962891,0.0
214,0.9364604637026787,-0.006030976830515965,35.540000915527344,48.550060749053955,25.224053859710693,68.66161994934082,0.0
215,0.9323023200035095,-0.0075562526704743005,35.540000915527344,49.371794605255126,26.288155555725098,67.18413162231445,0.0
216,0.9283730626106264,-0.008334388490766235,35.540000915527344,49.158119678497314,25.4798526763916,65.61624259948731,0.0
217,0.9274956479668619,-0.00648938098456706,35.540000915527344,49.71672792434693,25.746642351150513,66.5786693572998,0.0
218,0.9307763934135437,-0.0009457934269448624,35.540000915527344,50.83272275924683,26.529915142059327,67.68266944885254,0.0
219,0.9441282391548157,0.012578076950740008,35.54549999237061,47.97313795089722,25.63186740875244,68.71285438537598,0.0
220,0.9622486084699631,0.026999279856681768,35.54999923706055,49.18498153686524,23.25518913269043,72.31596603393555,0.0
221,0.9854045212268829,0.041319445613771634,35.54999923706055,51.729548358917235,23.40292997360229,75.67174091339112,0.0
222,0.9910123020410537,0.03443936049006874,35.54999923706055,48.59890069961548,21.836386108398436,77.21124725341797,0.0
223,0.9848704546689987,0.016517909849062505,35.54999923706055,48.06349220275879,19.975579500198364,78.7461036682129,0.0
224,0.9864726647734642,0.008499090129043856,35.54999923706055,51.48595838546753,19.207570266723632,80.25509300231934,0.0
225,0.9929197013378144,0.00761119045782829,35.54999923706055,49.02564096450806,18.896215200424194,80.75928325653076,0.0
226,0.9998626604676246,0.009979237639345186,35.556500625610354,50.63003664016723,18.017704677581786,82.23259563446045,0.0
227,0.9973067387938499,0.00566346893319855,35.560001373291016,49.41819276809692,17.34310111999512,83.58155555725098,0.0
228,0.991737122833729,-0.0012718086392851402,35.560001373291016,50.110500717163085,16.85653238296509,84.8179542541504,0.0
229,0.9945982247591019,0.0002635951561387725,35.560001373291016,49.40964584350586,17.590963935852052,86.09902763366699,0.0
230,1.0100100547075272,0.013017307734116879,35.560001373291016,48.59462718963623,16.448106861114503,86.12980613708496,0.0
231,1.0078737795352937,0.008101753145456275,35.560001373291016,49.254578590393066,14.398046469688415,84.83266639709473,0.0
232,0.9984893292188645,-0.0019037662510526976,35.560001373291016,49.92796096801758,14.65201473236084,85.073876953125,0.0
233,0.9974593326449395,-0.003510145412292282,35.560001373291016,49.5396824836731,14.576922965049743,85.92525653839111,0.0
234,0.9991378650069237,-0.00323415008024308,35.555250358581546,49.912088012695314,11.743589782714844,82.75740394592285,0.0
235,0.995399335026741,-0.006018642452545417,35.54999923706055,50.12332124710083,11.03113524913788,79.05517902374268,0.0
236,0.990707114338875,-0.007103612727951213,35.54999923706055,50.045177173614505,11.849816823005677,78.57799663543702,0.0
237,0.9877696886658669,-0.007358216342981864,35.54999923706055,49.02808313369751,11.556776762008669,78.31234169006348,0.0
238,0.9844126775860786,-0.00848944241879504,35.542750453948976,51.580585956573486,12.776556730270388,76.38847198486329,0.0
239,0.9815515428781509,-0.008186376537196298,35.540000915527344,50.161782550811765,15.216727709770202,76.78051738739013,0.0
