sec,SCL,SCR,TEMP,BVP,PVA,HR,MOTION
0,2.5253685235977175,0.0010000000474974,35.07700119018555,50.12881536483765,0.0,30.0,0.0
1,2.490615552663803,0.07518972894176837,35.08775053024292,50.001220893859866,0.0,30.0,0.0
2,2.456854462623596,0.13188903821865092,35.09000015258789,49.98229570388794,7.028693628311157,47.93978128433228,0.0
3,2.4453718602657317,-0.03632983624702316,35.09000015258789,50.59951162338257,9.7069598197937,63.781841087341306,0.0
4,2.4308374404907225,-0.047433935105800594,35.09000015258789,49.88278388977051,9.856532168388366,70.02871570587158,0.0
5,2.4138233721256257,-0.04450785424560305,35.08350124359131,50.17460308074951,10.354090213775635,72.35565185546875,0.0
6,2.398449641466141,-0.03906750669702883,35.0760009765625,49.21672801971435,18.376067829132076,73.57968292236328,0.0
7,2.3836100578308104,-0.03781033949926491,35.06525049209595,51.29487133026123,22.206348943710328,73.72949237823487,0.0
8,2.372089296579361,-0.034787476435303645,35.060001373291016,50.57203922271729,21.91025605201721,74.16175155639648,0.01149497479200362
9,2.363353395462036,-0.029290742008015448,35.051249504089355,49.06043949127197,22.882784271240233,73.26312484741212,0.0
10,2.359309673309326,-0.021119258459657377,35.04999923706055,47.310134410858154,24.11111135482788,72.82017135620117,0.0
11,2.3560289561748506,-0.01488830051384861,35.04999923706055,52.74175834655762,22.973137617111203,74.3136552810669,0.01724246218800543
12,2.344660794734955,-0.01824341786559668,35.042500495910645,49.77716703414917,24.621489048004154,75.72186279296875,0.0
13,2.329782998561859,-0.025017525441944567,35.040000915527344,47.76495733261108,26.174603080749513,74.9560619354248,0.0
14,2.316469293832779,-0.02944189561530945,35.040000915527344,48.391941452026366,26.61294279098511,73.13165283203125,0.0
15,2.3065508365631104,-0.02942324825562534,35.0337495803833,52.33638572692871,25.860195875167847,73.07511043548584,0.01724246218800543
16,2.295525997877121,-0.029028154863044588,35.029998779296875,48.42796087265015,26.377289724349975,74.81255531311035,0.0298150911927223
17,2.2822504460811617,-0.02989921933040019,35.029998779296875,49.81562881469726,25.208791160583495,75.55427169799805,0.017781289108097537
18,2.274697107076645,-0.025372865307144787,35.025249576568605,50.02442007064819,27.112331867218018,77.59232959747314,0.0
19,2.3277230143547056,0.03329098288813835,35.02000045776367,48.446275901794436,27.595237827301027,77.63278503417969,0.0
20,2.4290063083171844,0.12053183168172829,35.01724987030029,48.65506677627563,25.200244140625,78.15700817108154,0.0
21,2.4492629706859588,0.11132540702819818,35.0099983215332,50.62759447097778,22.753968381881712,79.52996997833252,0.0
22,2.411801505088806,0.04539848826825613,35.01724987030029,50.63003664016723,21.684982538223267,80.36557483673096,0.0
23,2.387501132488251,-0.0029940588117824377,35.02000045776367,49.26373605728149,20.439561080932616,78.42371826171875,0.0
24,2.3826944828033447,-0.025577742792665885,35.02000045776367,49.54273500442505,19.85042691230774,76.05927982330323,0.0
25,2.3930326223373415,-0.0164541301201097,35.02000045776367,49.31562852859497,20.911477613449097,73.55387344360352,0.0
26,2.3941007375717165,-0.004698323065531393,35.02000045776367,50.9078145980835,21.091575622558594,72.5434555053711,0.005388269573450085
27,2.3919644355773926,0.0007733345040378469,35.02000045776367,49.944444465637204,20.80647101402283,72.3292043685913,0.025145257823169214
28,2.4064226269721987,0.015423350699711541,35.02000045776367,49.20634937286377,21.253968811035158,73.62499504089355,0.018320116214454157
29,2.4977110981941224,0.09463866874575609,35.02000045776367,51.29792432785034,23.53418779373169,75.44040279388427,0.012213410995900623
30,2.643322545289993,0.2027154929935932,35.02000045776367,82.18070755004882,23.931623458862305,75.66204071044922,0.7425035238265991
31,2.6992858707904817,0.20156935006380078,35.022999954223636,12.675824199989439,23.931623458862305,75.66204071044922,0.3617324829101562
32,2.7560503005981447,0.19148375056684014,35.02000045776367,44.33882789611816,23.931623458862305,75.66204071044922,0.1866137264296412
33,2.7962965607643127,0.15444170217961067,35.02000045776367,87.30463943481445,23.931623458862305,76.20918273925781,0.4224403129890561
34,2.76306956410408,0.05274234286916905,35.02000045776367,49.05555544509552,50.26495599746704,76.00524711608887,1.5521807745099068
35,2.6890621721744536,-0.05045220607426011,35.02000045776367,25.70207563834265,67.85469970703124,73.25155239105224,1.8404531612992288
36,2.6774269580841064,-0.060732657834887425,35.014499282836915,87.90232000350952,87.17948913574219,58.5080451965332,2.557452219724655
37,2.815752124786377,0.07525973075826183,35.0099983215332,55.03601942062378,87.17948913574219,58.5080451965332,1.47710422873497
38,2.9917294681072235,0.22641938067972656,35.00349941253662,31.509157401742414,87.17948913574219,58.5080451965332,0.33048051744699475
39,3.1754890620708465,0.34916688576340676,34.99275121688843,30.65872995289974,87.17948913574219,58.5080451965332,0.04131006598472593
40,3.2685323774814607,0.33917087316513056,34.9900016784668,44.3003662109375,87.17948913574219,58.5080451965332,0.0
41,3.234389787912369,0.18770781159400937,34.98174991607666,49.230158948898314,90.32722625732421,52.79721364974976,0.09142096936702725
42,3.167859423160553,0.02937657520815264,34.97999954223633,52.0921856880188,33.94383239746094,53.5265025138855,0.04382459111511705
43,3.113612765073776,-0.07078323387540873,34.97999954223633,54.40231981277466,30.921855449676514,71.46106719970703,0.0
44,3.0611972391605375,-0.12287287581712007,34.97300071716309,50.940171241760254,25.15750923156738,83.80687408447265,0.012931846641004075
45,3.015610229969025,-0.12845424488186835,34.97425050735474,50.078143787384036,27.37545852661133,86.18987636566162,0.0
46,2.976355791091919,-0.11539120208472012,34.97999954223633,19.899267475120723,27.868131637573242,86.80834045410157,0.0804648226127028
47,2.937520980834961,-0.10548707898706196,34.985500717163085,48.16422455320135,28.22954750061035,87.20930480957031,0.08315895851701496
48,2.894222843647003,-0.10385316833853717,34.9900016784668,61.398046505451205,41.18192930221558,87.64280014038086,0.08154247701168059
49,2.854930263757706,-0.10027454625815149,35.0,84.46092805862426,84.32844734191895,87.14721488952637,0.008980449289083476
50,2.826281023025513,-0.08942114263772959,35.0099983215332,36.89682536125183,97.94871520996094,86.9565200805664,0.0
51,2.803544741868973,-0.07585367728024715,35.01774997711182,36.12881565093994,97.94871520996094,86.9565200805664,0.0
52,2.783669525384903,-0.0631482902914285,35.025249576568605,46.23809556961059,97.94871520996094,86.9565200805664,0.0
53,2.764824378490448,-0.05375287029892199,35.029998779296875,45.27289371490478,96.79731140136718,83.64122867584229,0.0
54,2.7446821570396422,-0.050217084120958974,35.029998779296875,51.702686405181886,54.89682588577271,79.17166404724121,0.0
55,2.7274010300636293,-0.046817283984273594,35.029998779296875,51.051893043518064,43.29609394073486,77.26618671417236,0.0
56,2.711722141504288,-0.04357581911608569,35.03099899291992,46.69291830062866,40.84493217468262,76.63597145080567,0.03969358466565605
57,2.6942884802818297,-0.04287549965083591,35.040000915527344,47.42918195724487,38.717949295043944,76.65298919677734,0.0
58,2.6776558816432954,-0.04187257103621951,35.040000915527344,53.29304027557373,43.17948741912842,76.82214317321777,0.0
59,2.6622440099716185,-0.04028706001117817,35.040000915527344,47.35286912918091,41.39926700592041,76.89104957580567,0.023349167965352517
60,2.6498077273368836,-0.03684166790917507,35.040000915527344,48.35775346755982,38.64468812942505,77.17089748382568,0.0
61,2.6368755221366884,-0.03445314019918433,35.044000244140626,53.599511814117434,41.927960586547854,77.49943885803222,0.007184359245002263
62,2.626957029104233,-0.030223829438909822,35.04999923706055,48.26129417419433,40.918803691864014,77.63850688934326,0.0
63,2.6165425539016725,-0.027857070881873308,35.05199966430664,44.11965832710266,37.55189294815064,79.24271965026855,0.01149497479200362
64,2.603877383470535,-0.02855935064144429,35.060001373291016,66.73748474735767,42.13919286727906,81.16102600097656,0.056576829217374267
65,2.593615525960922,-0.02762107551097866,35.060001373291016,36.27716744039208,42.27106094360352,81.1907958984375,0.10309555381536481
66,2.583277350664139,-0.026660662237554762,35.060001373291016,55.38522510528564,42.27106094360352,81.1907958984375,0.048135206475853884
67,2.571146309375763,-0.02789620151743289,35.060001373291016,48.73199043273926,44.523808383941656,81.32777481079101,0.0
68,2.5598544239997865,-0.027849535085260835,35.068249988555905,46.24725255966187,52.28327178955078,81.79959106445312,0.0
69,2.5519196152687074,-0.024894836312159854,35.06999969482422,50.81990232467651,49.01037750244141,82.0403221130371,0.0
70,2.5436033248901366,-0.02312579387798901,35.07625102996826,47.98168497085571,43.9621485710144,81.16601219177247,0.0
71,2.5334559261798857,-0.023373144865035975,35.08000183105469,46.672771549224855,36.22466506958008,80.2580141067505,0.0
72,2.522011458873749,-0.024873604625463445,35.08000183105469,55.195970726013186,31.795482206344605,81.03217067718506,0.0
73,2.5134281396865843,-0.023931079776957596,35.08475103378296,52.89743585586548,34.39682559967041,81.3394214630127,0.0
74,2.5037003815174104,-0.024246889818459703,35.09000015258789,46.25152597427368,32.75213813781739,80.532470703125,0.0
75,2.494659286737442,-0.023551969043910458,35.09000015258789,54.42368755340576,34.05677795410156,80.70060062408447,0.0
76,2.4835962891578673,-0.02471273909322912,35.09000015258789,49.748473739624025,39.61782646179199,81.2129135131836,0.0
77,2.472266298532486,-0.026118158968165467,35.09000015258789,45.08241758346558,37.54334487915039,80.51039428710938,0.0
78,2.4625766813755035,-0.025752234179526517,35.09000015258789,54.4316237449646,37.25763206481933,79.32673034667968,0.0
79,2.4547563076019285,-0.023571198293939173,35.09000015258789,48.45421285629273,40.18436965942383,79.2075813293457,0.0
80,2.445791482925415,-0.022747691441327274,35.09000015258789,47.391941452026366,38.648960971832274,79.18516426086425,0.0
81,2.437284487485886,-0.02172103193588549,35.09324960708618,53.837606811523436,41.9291805267334,78.27843971252442,0.0
82,2.427175211906433,-0.022723535075783667,35.092999649047854,46.903540992736815,39.925519180297854,78.07189178466797,0.0
83,2.4183248341083527,-0.022602653177455002,35.09749889373779,48.43345518112183,39.0134313583374,78.35846672058105,0.0
84,2.4105807721614836,-0.021490259701386037,35.099998474121094,53.97069578170776,41.04639949798583,77.83247871398926,0.0
85,2.4022263050079347,-0.021131776552647287,35.099998474121094,48.79975566864014,40.10378456115723,77.26989555358887,0.0
86,2.395016300678253,-0.01971602388657622,35.109250450134276,49.08485927581787,40.3699625968933,77.27008819580078,0.0
87,2.3878444612026213,-0.018740214966237477,35.11000061035156,49.703907108306886,42.15628852844238,77.23887615203857,0.0
88,2.377544516324997,-0.021130294073373013,35.11000061035156,51.895604610443115,40.778388023376465,77.06511497497559,0.0
89,2.3657567143440246,-0.024388614809140494,35.111500358581544,41.43284471635707,42.68498115539551,77.3587604522705,0.13811930157244207
90,2.3533967196941377,-0.02732321894727644,35.119998931884766,33.022588541312146,46.86202621459961,77.77057647705078,1.0469407325610518
91,2.347598189115524,-0.022986643941840124,35.119998931884766,74.51587324142456,46.86202621459961,77.77057647705078,0.02873743698000905
92,2.4382381796836854,0.06969239294994617,35.119998931884766,34.74175817412324,46.86202621459961,77.77057647705078,0.07328046392649407
93,2.6134525537490845,0.21521461755037308,35.119998931884766,52.23992710113525,46.72710628509522,78.23771438598632,0.0035921797156333903
94,2.670445889234543,0.2153716880828142,35.119998931884766,55.83089094161987,44.173382472991946,79.05950450897217,0.0
95,2.639507734775543,0.12489337474107742,35.119998931884766,49.63064723014831,41.66056060791016,78.89546203613281,0.0
96,2.604411447048187,0.034862903693283424,35.12550010681152,54.1312575340271,42.28571319580079,78.52719974517822,0.02370838597416876
97,2.578203672170639,-0.03283315518638117,35.130001068115234,54.89926710128784,47.912086486816406,75.9493637084961,0.0071843594312667805
98,2.5579088747501375,-0.06009504329413175,35.130001068115234,49.57326002120972,42.84310035705566,74.30040187835694,0.0
99,2.5415814757347106,-0.05505323447287082,35.130001068115234,51.52625150680542,39.297924804687504,73.5189308166504,0.0
100,2.5271614730358123,-0.04507843032479285,35.130001068115234,51.14774103164673,39.96337032318116,77.9231014251709,0.0
101,2.513008487224579,-0.03915975028648971,35.12800064086914,45.000610780715945,45.08058662414551,80.26633720397949,0.02442682161927221
102,2.4992752015590667,-0.03605986684560773,35.12675037384033,51.15445685386658,48.4938946723938,81.61854801177978,0.0287374375388026
103,2.4874111235141756,-0.032993583614006616,35.119998931884766,49.268620014190674,49.72283248901367,81.9225975036621,0.0
104,2.4768440961837768,-0.03096139221452172,35.119998931884766,45.4951162815094,52.58363914489746,81.72163467407226,0.0
105,2.466391462087631,-0.02799882586114103,35.112750148773195,53.39743595123291,51.80708255767822,80.91182098388671,0.0
106,2.457464796304703,-0.025186396483331857,35.11000061035156,53.286935329437256,52.82905826568604,78.27657146453858,0.018679334037005883
107,2.4691381573677065,-0.00444059543078764,35.101748847961424,42.96581172943115,54.652014350891115,76.82953414916992,0.0
108,2.5035859405994416,0.03125568353570991,35.099998474121094,50.51037831306458,53.73198938369751,76.91199283599853,0.0
109,2.5153355598449707,0.03694066097959868,35.099998474121094,51.26862025260925,52.837606048583986,77.14229030609131,0.08046482298523183
110,2.5420773804187773,0.053165542799979384,35.09599914550781,46.8046395778656,50.470083999633786,78.50971183776855,0.030713135749101606
111,2.6252403438091276,0.11190681420266628,35.09000015258789,50.8199022769928,62.7203875541687,79.75526866912841,0.004310615547001358
112,2.6546906530857086,0.10379797741770742,35.09000015258789,51.92002429962158,56.275946617126465,79.88709182739258,0.00574748739600181
113,2.6150929391384126,0.0340318212060083,35.09000015258789,46.924298000335696,51.865690040588376,78.53735847473145,0.00574748739600181
114,2.572367030382156,-0.02456667963924699,35.09000015258789,46.529914426803586,51.120880126953125,76.04889831542968,0.01149497479200362
115,2.5472655415534975,-0.05658276146277784,35.09000015258789,55.762515258789065,52.35103931427002,73.47600555419922,0.0
116,2.5352870285511018,-0.05981889646500348,35.09000015258789,49.11416368484497,51.67887592315674,73.35971450805664,0.012931846641004075
117,2.5307092487812044,-0.04133755778893827,35.09000015258789,46.54761891365051,47.142247104644774,75.40652408599854,0.0
118,2.5218207061290743,-0.0280024008825421,35.09000015258789,53.34920601844787,51.87912073135376,76.93227500915528,0.0
119,2.512512576580048,-0.02246954157017167,35.09000015258789,47.6575092792511,52.05616683959961,79.16299285888672,0.0
120,2.499427783489227,-0.025142935942858415,35.09949855804443,46.824175930023195,51.10012245178223,80.25909461975098,0.0
121,2.486648178100586,-0.028437750693410584,35.099998474121094,54.59401693344116,50.266178607940674,80.6451644897461,0.0
122,2.473334437608719,-0.03114881282672282,35.104499435424806,48.61843738555908,50.30525207519531,80.37777328491211,0.004310615547001358
123,2.458418518304825,-0.03389366799965498,35.11000061035156,48.25396814346313,51.917583751678464,78.74217166900635,0.008621231094002715
124,2.4427396416664124,-0.03619876075536009,35.11000061035156,47.305250024795534,53.69963455200195,76.26312599182128,0.015805590339004978
125,2.4298456072807313,-0.03503490937873718,35.11000061035156,52.49267406463623,54.27900037765503,74.17935581207276,0.004310615547001358
126,2.4168370842933653,-0.03418536353856322,35.08925018310547,52.5164834022522,54.884005546569824,73.48738479614258,0.0
127,2.404362607002258,-0.032708948012441355,35.060001373291016,45.625152826309204,54.6422456741333,74.55370864868163,0.0
128,2.3931852161884306,-0.03050201954320066,35.060001373291016,46.30525007247925,54.65445766448975,75.04245185852051,0.0
129,2.381550043821335,-0.02950691068544977,35.10949935913086,56.39865665435791,55.393771934509275,75.48515625,0.0
130,2.370715969800949,-0.028331954404711646,35.12575016021729,44.2112331867218,55.879119873046875,76.72145366668701,0.018679334037005883
131,2.3597293376922606,-0.027715004049241487,35.130001068115234,44.7374849319458,56.312576103210446,76.63575477600098,0.00574748739600181
132,2.349925231933594,-0.026404535118490436,35.136999893188474,53.3846155166626,55.35470094680786,75.90296115875245,0.0
133,2.3406170904636383,-0.024934522015973903,35.13999938964844,50.32539691925049,50.41086769104004,74.27511024475098,0.0
134,2.3306985437870025,-0.02457609255798158,35.13999938964844,50.75152616500854,46.77350473403931,74.8973602294922,0.0
135,2.3221533596515656,-0.02317944904789326,35.1487512588501,49.226496028900144,46.150184822082515,75.17154808044434,0.0
136,2.3135318994522094,-0.022333012335002393,35.150001525878906,50.640415239334104,50.40781478881836,75.62083339691162,0.0
137,2.3023545026779173,-0.02418111283332106,35.150001525878906,53.501831436157225,52.03724060058594,76.09449081420898,0.0
138,2.290986382961273,-0.02581321680918332,35.151001358032225,46.524420166015624,53.10134315490723,76.75220489501953,0.04005280267447229
139,2.282517486810684,-0.024462537188082896,35.15999984741211,51.184981775283816,51.7527484893799,78.52571334838868,0.02155307773500679
140,2.272675210237503,-0.02462529209442433,35.15999984741211,52.18315019607544,52.161170959472656,79.01116676330567,0.0
141,2.2645878314971926,-0.02277647424489256,35.15999984741211,43.250304985046384,54.19719133377075,79.349049949646,0.0
142,2.25589005947113,-0.02195784817449744,35.15999984741211,50.746642637252805,54.642856979370116,79.72356395721435,0.018679334037005883
143,2.247917115688324,-0.02100312886759634,35.16699867248535,53.18925552368164,50.300367164611814,79.46649589538575,0.03592179641127583
144,2.239677149057388,-0.02192741418257351,35.16999816894531,59.231989765167235,48.583638191223145,79.67093276977539,0.037717886827886085
145,2.2276223242282867,-0.023531785188242737,35.16999816894531,56.91758241653442,46.81074333190918,78.1631477355957,0.0014368718490004526
146,2.2197638034820555,-0.022438664641231246,35.16999816894531,28.903540620207785,46.78876495361328,77.87151336669922,0.0
147,2.210608220100403,-0.022589746024459546,35.16999816894531,66.7319902420044,54.36629877090454,77.54370021820068,0.0319703986868262
148,2.201643395423889,-0.022362240171059915,35.17649955749512,53.50793604850769,57.240535736083984,76.2142433166504,0.02155307773500679
149,2.1937085807323458,-0.02117211725562805,35.177499771118164,40.145909879310054,62.505493354797366,71.65374984741212,0.0
150,2.1847438335418703,-0.02145370524376625,35.18000030517578,47.122100305557254,72.28327178955078,69.08462524414062,0.0
151,2.17856382727623,-0.01915727253071958,35.18574934005737,51.72039079666138,73.23809509277343,61.55585069656372,0.0
152,2.170781588554382,-0.018905213894322457,35.18374967575073,54.61416320800781,67.00610485076905,55.4074743270874,0.0
153,2.1631901144981383,-0.01871670368127519,35.1834997177124,51.355922031402585,36.46459169387818,66.65444240570068,0.0
154,2.1548356652259826,-0.019361649733036692,35.18000030517578,47.974359130859376,36.92307662963867,71.47111511230469,0.0
155,2.1462523221969603,-0.02025419981218868,35.18000030517578,55.64896240234375,37.19230737686157,73.84926624298096,0.0
156,2.1385845482349395,-0.020089855371043023,35.18000030517578,45.9420027256012,46.53846035003662,77.31246185302734,0.0
157,2.130726021528244,-0.019899552408605747,35.18000030517578,50.57264966964722,44.43772888183594,82.50549335479737,0.0
158,2.1228293716907505,-0.019788607815280485,35.18000030517578,51.42857131958008,45.501831436157225,86.25366516113282,0.0
159,2.115543097257614,-0.019061474874615604,35.18000030517578,43.69719223976135,45.36752185821533,86.02895889282226,0.0
160,2.108943462371826,-0.017962142406031424,35.18000030517578,52.643467617034915,44.570818710327146,82.65494861602784,0.0
161,2.1018097758293153,-0.01779431663453576,35.18000030517578,50.728938007354735,45.728939056396484,79.59081115722657,0.0
162,2.094294583797455,-0.017946961335837817,35.18000030517578,43.79242959022522,46.125762939453125,78.06053619384765,0.0
163,2.087504196166992,-0.01756935119628903,35.18000030517578,48.92796087265015,44.28937816619873,76.06479110717774,0.0
164,2.080637538433075,-0.017446030303835836,35.18000030517578,52.09157524108887,42.708182144165036,75.71965103149414,0.0
165,2.073809015750885,-0.017286027548834654,35.18000030517578,51.08913307189941,37.064712047576904,75.98064823150635,0.0
166,2.0659886419773104,-0.017950937617570113,35.18000030517578,51.249694633483884,38.73504161834717,76.2855396270752,0.0
167,2.0584353029727938,-0.01832465305924411,35.18000030517578,48.54334564208985,41.5854697227478,76.36871700286865,0.0
168,2.0513016283512115,-0.018265443528071017,35.17099838256836,50.68925552368164,41.60378608703613,76.2279920578003,0.0
169,2.043176072835922,-0.019054427836090286,35.16999816894531,49.32417583465576,44.13064613342286,76.19047546386719,0.0
170,2.033753502368927,-0.020703916857019035,35.16999816894531,49.98840041160584,47.504272270202634,76.443310546875,0.0
171,2.0249412775039675,-0.02136776666156943,35.16999816894531,52.590353870391844,44.8968243598938,76.77302722930908,0.0
172,2.0183416426181795,-0.019905493129044726,35.16524896621704,49.046398067474364,46.28205108642578,77.05211639404297,0.0
173,2.0104830980300905,-0.01962692504748698,35.15999984741211,42.144688844680786,48.18986463546753,77.19535732269287,0.0
174,2.003311240673065,-0.01868855445645745,35.16949825286865,55.881562900543216,46.36691083908081,77.03296489715576,0.0
175,1.997054973244667,-0.017266562813892907,35.16624879837036,49.2765567779541,50.59462757110596,76.97241973876953,0.0
176,1.9897686809301376,-0.017475501867011137,35.15999984741211,45.5934063911438,50.423076438903806,75.77136344909668,0.0
177,1.9816812694072723,-0.018348049325868435,35.15999984741211,49.45238075256348,51.17948608398437,73.54363708496093,0.0
178,1.974127921462059,-0.018584989476948935,35.15999984741211,49.02014651298523,53.719168186187744,72.55888118743897,0.0
179,1.9648960709571839,-0.020402340078726364,35.15999984741211,53.865079402923584,53.48351602554321,72.44194087982177,0.0
180,1.9570757180452347,-0.020399112254381128,35.15999984741211,49.802197742462155,51.16605596542359,74.37827529907227,0.0
181,1.9507431209087371,-0.01872247988358134,35.15999984741211,45.61538424491882,52.10622768402099,75.80981063842773,0.0
182,1.9465468108654023,-0.015522455214522727,35.15999984741211,55.93223428726196,49.40170860290527,77.41212272644043,0.0
183,1.941320526599884,-0.013995090592652503,35.15999984741211,49.056166005134585,49.42612838745117,79.57559967041016,0.0
184,1.9341868400573734,-0.014705190062522841,35.16249942779541,44.1056164264679,49.42612838745117,79.57559967041016,0.0
185,1.9258705377578735,-0.016883644694462352,35.16999816894531,55.45238075256348,49.658119201660156,79.92461395263672,0.0
186,1.9168294280767442,-0.019428506493568354,35.16999816894531,46.20695943832398,50.208792304992684,79.02517585754394,0.015805590339004978
187,1.9100772053003312,-0.019176218518987237,35.17099838256836,45.66605625152588,51.27716636657715,75.56214065551758,0.0
188,1.9020660996437073,-0.019577003084123072,35.18000030517578,55.76617832183838,47.56715412139892,75.65603561401367,0.0
189,1.8988616466522217,-0.01524016286712134,35.18000030517578,43.135530948638916,50.028084182739256,76.2219409942627,0.0
190,1.8965727806091308,-0.011075106030330007,35.18000030517578,42.23626370429993,43.658119201660156,76.42386169433594,0.0
191,1.8900875926017762,-0.012056049285456482,35.18000030517578,53.38095188140869,35.08486061096191,75.82913017272949,0.0
192,1.8815042525529861,-0.015177651122212348,35.18000030517578,53.00427331924438,26.638583135604858,75.50850791931153,0.0
193,1.872730192542076,-0.018114315951242972,35.18449954986572,52.426129531860354,21.478021717071535,75.62187805175782,0.0
194,1.866435742378235,-0.018251300044357717,35.189998626708984,53.756410121917725,22.266788387298586,75.93505668640137,0.0
195,1.8622394621372222,-0.01572590181604021,35.189998626708984,52.47863235473633,23.56043887138367,76.1121488571167,0.0
196,1.856669807434082,-0.014470154838636465,35.19599990844726,50.94688634872436,27.34615316390991,76.59422206878662,0.0
197,1.8506805330514908,-0.014018040499649909,35.189998626708984,46.69474973678589,32.252748012542725,76.77791919708253,0.0
198,1.8439283281564713,-0.014904694212600555,35.189998626708984,46.904761981964114,35.940170192718504,76.55895328521729,0.0
199,1.8356883555650712,-0.017251140717416985,35.189998626708984,53.078754615783694,37.78266067504883,76.40166893005372,0.0
200,1.8287453830242157,-0.017730381432920668,35.189998626708984,46.903540802001956,42.554946422576904,76.68718109130859,0.0
201,1.8220313102006913,-0.017630496853962507,35.189998626708984,45.42063465118408,42.21428737640381,75.62308197021484,0.0
202,1.8156987190246583,-0.017016342654824223,35.18974866867065,51.28205137252807,40.94017028808594,73.34502029418945,0.0
203,1.8060472577810287,-0.01931252265349027,35.18075017929077,52.47496862411499,44.84554462432861,72.6087453842163,0.0
204,1.8013550072908402,-0.01673977309837934,35.185499382019046,50.93589763641357,43.81562900543213,72.82540435791016,0.0
205,1.7974257826805116,-0.014124067127704577,35.18274984359741,47.93284502029419,44.36690979003907,74.07181816101074,0.0
206,1.79166539311409,-0.013750241766683713,35.18000030517578,45.92796092033386,45.856533432006835,74.52966194152832,0.0
207,1.7855998426675797,-0.013711186661384964,35.18000030517578,54.10500621795654,45.81807250976563,75.05878067016602,0.0
208,1.7824335426092148,-0.011507664481177878,35.17024822235108,49.61355285644531,45.93406629562378,75.27052974700928,0.0
209,1.7762916803359985,-0.012922390270978157,35.16999816894531,45.00366268157959,46.25824241638183,75.35677452087403,0.0
210,1.769157999753952,-0.014649736555293147,35.16999816894531,52.1691086769104,47.125762176513675,75.68143768310547,0.0
211,1.7646183967590332,-0.013578646536916436,35.16999816894531,48.91025681495667,49.47130661010742,75.9662275314331,0.0
212,1.761833557486534,-0.01138839391060168,35.16999816894531,49.736263847351076,48.53602046966553,76.06853084564209,0.0
213,1.7530594676733018,-0.014879491273313708,35.16999816894531,45.52136745452881,47.226495361328126,76.39958114624024,0.0
214,1.7477568835020065,-0.0142391405301168,35.16999816894531,49.62637338638306,45.30769271850586,76.71661128997803,0.0
215,1.743751308321953,-0.012925392785109522,35.16999816894531,53.55616598129272,41.73992586135864,76.84304141998291,0.0
216,1.7366939455270767,-0.014723014668561454,35.16999816894531,47.988400554656984,42.07570266723633,76.90090522766113,0.0
217,1.7330698549747467,-0.012566930544562583,35.16999816894531,49.53357772827148,41.54456806182861,76.33737182617188,0.0
218,1.7272713482379913,-0.012920592771843025,35.16999816894531,54.598290252685544,40.68070726394653,75.79593353271484,0.0
219,1.722769856452942,-0.012422287999652292,35.1707483291626,46.28815631866455,43.267399883270265,75.99027423858642,0.0
220,1.718153938651085,-0.011929417890496511,35.17674961090088,49.04273519515991,41.80342044830322,76.0769702911377,0.0
221,1.711821335554123,-0.013234976585954386,35.18000030517578,55.04761915206909,43.269229412078865,76.92036418914795,0.0
222,1.7082354515790938,-0.011839774227701083,35.18000030517578,52.889499282836915,42.27106094360352,77.31958770751953,0.004310615547001358
223,1.7022080272436138,-0.012822715612128327,35.18000030517578,49.48168489933014,42.1440773010254,77.6451431274414,0.012931846641004075
224,1.6980880141258239,-0.011991796572692651,35.18000030517578,41.615995383262636,41.63614273071289,78.9473648071289,0.0
225,1.6936628371477127,-0.011454234085977033,35.18000030517578,48.78937730789185,54.185593605041504,77.94790420532226,0.0
226,1.688589131832123,-0.011880911584012164,35.18000030517578,52.08241767883301,66.12698583602905,71.87266912460328,0.0
227,1.6846980214118958,-0.011078309407457665,35.18000030517578,50.31746006011963,30.65812063217163,57.50422134399414,0.0
228,1.6807305842638016,-0.010527146770618804,35.18574934005737,48.52930402755737,36.32234497070313,66.80177001953125,0.0
229,1.676076555252075,-0.010868206503801003,35.189998626708984,50.30769205093384,40.0,71.98464832305908,0.0
230,1.671155422925949,-0.011280911555513699,35.189998626708984,51.69047660827637,43.97435836791992,73.22526149749756,0.0
231,1.6666920989751817,-0.011332810600288162,35.189998626708984,52.59279642105103,45.617825889587394,74.30352668762207,0.0
232,1.6594820946455002,-0.013873262191191263,35.189998626708984,47.46459069252014,46.69780330657959,75.52307567596435,0.0
233,1.6541032016277313,-0.014017118979245369,35.19549980163574,46.233211278915405,48.59096412658691,76.33652420043946,0.0
234,1.6501739650964737,-0.012666269601322661,35.20000076293945,55.462149143218994,48.45421199798584,77.3014892578125,0.0
235,1.6477705985307693,-0.0101592125371098,35.20000076293945,44.91147747039795,49.010990142822266,79.91658935546874,0.0
236,1.644032096862793,-0.009289378207176872,35.20000076293945,51.76800932884216,49.23015918731689,81.59267807006836,0.0
237,1.6410946846008296,-0.008067862188909147,35.20000076293945,49.17338199615479,49.36752090454102,83.20759735107421,0.0
238,1.637775832414627,-0.007991633878555095,35.20824937820434,42.71672763824463,50.94932842254639,82.9762315750122,0.0
239,1.6346094936132431,-0.007949449005536683,35.209999084472656,52.978632593154906,49.14530038833618,79.72327880859375,0.0
