sec,SCL,SCR,TEMP,BVP,PVA,HR,MOTION
0,2.123859333992004,0.0010000000474974,23.48424963951111,50.379120922088624,0.0,30.0,0.0
1,2.116229772567749,0.05765987434133417,23.494999885559082,50.01587333679199,0.0,30.0,0.0
2,2.1110034763813017,0.13020727641414848,23.5,50.65628805160522,0.0,30.0,0.0
3,2.1011612474918366,-0.01569422860338816,23.509500217437747,49.30219783782959,0.0,30.0,0.0
4,2.099482774734497,-0.014227610430680177,23.514000320434572,49.82417554855347,0.0,30.0,0.0
5,2.101619005203247,-0.006168245105072813,23.520000457763672,51.349206161499026,0.0,30.0,0.02586369328200815
6,2.1053575813770293,0.0007120067049981849,23.528500652313234,49.7380952835083,3.387667953968048,62.708438873291016,0.031611180678009956
7,2.10829496383667,0.00506264368887055,23.530000686645508,49.52625160217285,4.683760714530945,99.60592021942139,0.008621231094002715
8,2.1106600761413574,0.006677350541576694,23.530000686645508,49.81990222930908,4.252747321128846,107.16488227844238,0.022989949956536276
9,2.102877902984619,-0.0029375122183409974,23.526750612258912,51.29914531707764,3.522588551044464,104.89510345458984,0.0
10,2.067629021406174,-0.03526342767290769,23.52375054359436,48.86324796676636,6.224664092063903,115.13911628723145,0.0
11,2.050843954086304,-0.04266742765903472,23.530000686645508,48.632478618621825,9.51037845611572,150.51245727539063,0.0
12,2.0514924526214604,-0.0310947260353714,23.530000686645508,48.9676438331604,6.573259997367859,163.2653045654297,0.0
13,2.05210280418396,-0.019071890041232074,23.5365008354187,49.24297933578491,7.350427436828613,163.2653045654297,0.0
14,2.05271315574646,-0.00710663797799493,23.540000915527344,48.74603157043457,12.907204103469848,163.2653045654297,0.0
15,2.0523698329925537,-0.0005437237920688052,23.547749614715578,51.85042724609375,14.03296718597412,161.3036682128906,0.0
16,2.0513398647308354,-0.0006305535862338425,23.549999237060547,50.61843729019165,14.542124843597415,150.18772888183594,0.0
17,2.0505387187004094,-0.00140517836480281,23.549999237060547,49.067765426635745,15.811965656280517,143.5049835205078,0.0
18,2.0493178367614746,-0.00224241075338791,23.553249311447143,52.88156270980835,13.449939298629761,134.94824714660643,0.0
19,2.0513398230075834,0.0002584108337032375,23.559999465942383,49.89926767349243,14.88156325817108,132.71800270080567,0.0
20,2.0529801845550537,0.001928018403123085,23.559999465942383,51.408424949646,29.910256385803223,109.18870582580567,0.0
21,2.049127185344696,-0.0018176243418565226,23.565249586105345,53.74908447265625,16.382783627510072,88.51019134521485,0.01149497479200362
22,2.0457701683044434,-0.00440207437495696,23.56999969482422,48.316849899291995,15.873015880584717,87.33624267578125,0.0
23,2.0447402000427246,-0.004505071183666533,23.56999969482422,48.68620262145996,16.045787477493285,87.28384304046631,0.0
24,2.0465712547302246,-0.0017041751201759075,23.570749711990356,50.111721229553225,13.235652923583984,87.2727279663086,0.0
25,2.053209066390991,0.005424642568686943,23.57999992370605,47.2521369934082,13.235652923583984,92.59124717712402,0.0
26,2.055612325668335,0.007166142656933465,23.57999992370605,48.1312575340271,12.670940113067626,105.74896793365478,0.0
27,2.05790114402771,0.007568865758366833,23.589000129699706,54.398657131195066,14.737484645843505,107.01210441589356,0.0
28,2.057557821273804,0.00465262050274755,23.59000015258789,50.686202716827395,13.922466444969178,135.0986541748047,0.0
29,2.056947469711304,0.0016816979346912825,23.591000175476076,49.879120635986325,15.432234191894532,152.32138023376464,0.0
30,2.0568711757659917,0.00018106869305821704,23.600000381469727,51.51892557144165,14.823565006256104,161.2903289794922,0.0
31,2.054506063461304,-0.0023824078671167903,23.600000381469727,49.80708198547363,14.157509326934814,137.32902412414552,0.0
32,2.053895711898804,-0.0024948506266809422,23.609000587463377,49.496336936950684,14.252136754989625,125.14093971252441,0.0
33,2.053132772445679,-0.002397303355974088,23.61000061035156,47.57326021194458,13.39499397277832,129.41358280181885,0.0
34,2.0509202480316167,-0.00356114932219493,23.61000061035156,48.27899875640869,12.136752128601074,132.45033264160156,0.0
35,2.050843954086304,-0.00241837502398989,23.61425070762634,48.434066200256346,12.510378265380858,133.32628784179687,0.0
36,2.051110982894898,-0.0011439028261520051,23.6200008392334,48.257631397247316,17.019535779953003,124.71469917297364,0.0
37,2.051149082183838,-0.000625878287974035,23.6200008392334,49.23687429428101,13.708180665969849,94.15646057128906,0.0
38,2.046609401702881,-0.004179913626285217,23.6200008392334,48.58302812576294,15.17277159690857,90.70294952392578,0.0
39,2.0460753440856934,-0.003509253542870242,23.62674970626831,49.554334449768064,13.25763144493103,93.39991798400878,0.0
40,2.049356061220169,0.00040088865789582995,23.6299991607666,50.27045192718506,13.015872955322266,96.69621276855467,0.004310615547001358
41,2.050843954086304,0.0019707067112903574,23.6299991607666,53.84676456451416,18.690476369857787,100.21616668701172,0.02783939242362974
42,2.050843954086304,0.0021109421853906874,23.632249212265016,49.54212446212769,16.280830335617065,101.69491577148438,0.02909665517508981
43,2.0496230602264403,0.0006123020538324946,23.63999938964844,51.09829034805298,15.514041471481324,110.70639038085938,0.03735866807401177
44,2.0494322955608366,-0.0002652897750777703,23.63999938964844,48.83272275924683,13.908425164222717,130.5187168121338,0.00574748739600181
45,2.0530183315277104,0.00265190260543018,23.63999938964844,49.25824165344238,26.46459081172943,149.030265045166,0.02298994958400724
46,2.0612964034080505,0.009597736899740937,23.647749567031862,48.13247833251953,26.338217306137086,147.37873229980468,0.02514525800943373
47,2.065797805786133,0.011479350551962796,23.649999618530277,53.44688653945923,22.23199043273926,146.29871826171876,0.024067603610455967
48,2.065073013305664,0.007683000038377892,23.649999618530277,49.807081604003905,26.78876686096192,148.33126831054688,0.03394609726965424
49,2.064119338989258,0.0037035442277555675,23.65024962425232,50.85408992767334,17.01221013069153,148.33126831054688,0.0
50,2.0622501373291016,-0.000571096512794605,23.656999778747558,51.62271070480347,13.608058881759643,148.33126831054688,0.0
51,2.0614871978759766,-0.002343840844696338,23.65999984741211,49.117826557159425,13.600732612609864,147.31014862060547,0.0
52,2.059389019012451,-0.0037848018459043877,23.66174988746643,46.47741141319275,15.129426097869873,144.9275360107422,0.0
53,2.05607008934021,-0.0055199055466800375,23.670000076293945,49.63369979858398,12.48717975616455,144.9275360107422,0.0
54,2.0574052333831787,-0.00248177165922237,23.670000076293945,50.96031742095947,13.347374868392944,147.84593963623047,0.0
55,2.0593508660793303,0.0003216229793906625,23.670000076293945,46.364468574523926,14.096458888053894,165.00708541870117,0.0
56,2.060304641723633,0.0016881125426152176,23.670000076293945,50.622710609436034,13.64041519165039,166.06743774414062,0.0
57,2.059808683395386,0.0012648150979657426,23.67475018501282,48.23260078430176,15.159340834617614,155.86137657165528,0.0
58,2.0584733486175537,-0.0002777848920231475,23.68000030517578,48.80830278396606,14.040293264389039,127.37102966308593,0.0
59,2.0562226772308354,-0.002758246392477255,23.68000030517578,49.144077968597415,13.96398069858551,121.9392223358154,0.0
60,2.054887533187866,-0.0035190059919841176,23.68000030517578,49.609279537200926,14.23992669582367,115.23503112792969,0.0
61,2.0513780117034917,-0.005751693842466862,23.68000030517578,52.78815622329712,12.540903472900393,113.85198974609378,0.025504475459456423
62,2.0515305995941167,-0.0037369887111707973,23.687250471115114,46.995116233825684,15.350427055358887,113.85198974609378,0.0
63,2.054620504379273,0.0004822481251153383,23.690000534057617,50.68437118530274,19.135531616210937,119.38469772338867,0.01724246218800543
64,2.0524079442024235,-0.00105238585892947,23.69525065422058,49.78571424484253,14.819902181625366,128.08603038787842,0.0
65,2.048593044281006,-0.003732685820432328,23.700000762939453,51.59645938873291,16.126374077796935,128.62774276733398,0.0
66,2.0491271018981934,-0.00229363667895081,23.700000762939453,52.123931121826175,15.432845067977905,141.95613632202148,0.0
67,2.050157201290131,-0.0009639927302486801,23.700000762939453,48.72893762588501,15.51220989227295,167.52329025268554,0.0
68,2.050462424755097,-0.00014269522019959524,23.708249378204346,50.21611709594727,14.20512809753418,161.04104652404786,0.0
69,2.050843954086304,0.0009287493579904126,23.709999084472656,50.47252779006958,12.434676218032838,154.44015502929688,0.07543577067553991
70,2.050538730621338,0.0005430539487860825,23.709999084472656,49.01526250839233,14.52014639377594,148.7731948852539,0.050290514528751315
71,2.0488219261169434,-0.0013919149030698,23.709999084472656,53.85103797912598,15.09951159954071,140.2198673248291,0.07453772630542511
72,2.0506149351596834,0.00044396406738086996,23.716999244689937,50.35347967147827,18.300366520881653,153.1542896270752,0.07866873256862157
73,2.0686208486557005,0.017026632162742257,23.71999931335449,47.18192911148071,13.390109753608703,150.2906982421875,0.0019756987690925576
74,2.109820860624313,0.0505827178247273,23.71999931335449,51.21733827590943,20.579975509643553,141.76526489257813,0.09734806828200812
75,2.14888454079628,0.07392948120832442,23.71999931335449,49.75030517578125,19.763736414909364,140.03036079406738,0.08226091191172594
76,2.164639711380005,0.06814051326364277,23.72624945640564,49.63125762939453,15.516483521461486,148.8833770751953,0.11800309866666787
77,2.1594897508621216,0.040663674939423786,23.729999542236328,49.081196308135986,13.396825480461121,154.6126567840576,0.0
78,2.145451211929321,0.007639387669041732,23.73424963951111,50.19597082138061,16.520146369934082,158.6464500427246,0.0
79,2.129924923181534,-0.018097210733685577,23.739999771118164,44.576923084259036,16.564102363586425,164.60037155151366,0.014368718862533561
80,2.114360475540161,-0.03247655923478303,23.739999771118164,49.6605622291565,18.242979335784913,156.45859336853027,0.0
81,2.106959819793701,-0.030361543362960187,23.739999771118164,45.88278369903564,17.907203602790833,143.06012573242188,0.0
82,2.1027634143829346,-0.02304937043227253,23.74624991416931,51.426739883422854,14.065933966636658,137.9310302734375,0.0
83,2.0944853127002716,-0.02064050678163764,23.75,49.82417554855347,13.919414043426514,137.9310302734375,0.0
84,2.0870845556259154,-0.0184020689455792,23.75,49.64896202087402,14.744810390472413,132.86697845458986,0.00574748739600181
85,2.082850122451782,-0.015137352235615232,23.75,50.96825351715088,16.215507078170777,131.11938953399658,0.01724246218800543
86,2.0785012245178223,-0.013603442045859948,23.755250120162966,50.93772916793823,16.952380561828612,123.58623313903809,0.0
87,2.0763649940490723,-0.010263583739288106,23.76000022888184,49.509157752990724,14.025641107559204,125.0,0.0
88,2.073961544036865,-0.00790883467998351,23.766500377655028,48.97069616317749,14.14774112701416,125.0,0.0
89,2.071748971939087,-0.006587907264474729,23.770000457763672,49.25213708877563,13.689255166053773,134.49292221069337,0.0
90,2.0692312717437744,-0.00618954385863612,23.771500492095946,51.06166095733643,14.582417559623718,148.22156562805176,0.007184359245002263
91,2.0668278872966765,-0.006043802271597037,23.780000686645508,52.343711853027344,13.592185449600219,175.50825042724608,0.0
92,2.066102981567383,-0.00451948979753065,23.780000686645508,47.92490825653076,16.807081508636475,180.17124557495117,0.0
93,2.064920425415039,-0.0037968771706800423,23.780000686645508,49.209401512145995,13.113553142547607,177.1928497314453,0.0
94,2.0622119903564453,-0.004668807960115319,23.780000686645508,53.34981689453125,13.120268774032592,171.67381286621094,0.0
95,2.061220169067383,-0.003871899575460655,23.780000686645508,49.860806179046634,14.086080646514892,171.67381286621094,0.0
96,2.060800552368164,-0.0028902508085593124,23.78775086402893,49.20634908676148,14.31746027469635,150.44533157348633,0.0
97,2.0584352374076844,-0.0039367704419418625,23.790000915527344,52.076923274993895,14.05250301361084,143.36917114257812,0.0
98,2.0561082363128667,-0.0046009267913177075,23.790000915527344,50.74358978271484,12.896214866638184,143.36917114257812,0.0
99,2.054773092269898,-0.004217095609055777,23.793250370025635,47.29670352935791,14.686202716827392,143.36917114257812,0.0
100,2.0554215908050537,-0.0022963047144002697,23.799999237060547,48.59890089035034,13.809523677825927,147.25133514404297,0.0
101,2.0554215908050537,-0.00116515613772203,23.800999259948732,49.125152587890625,12.398046374320986,147.28152351379396,0.0
102,2.0530183136463167,-0.0025653495809819502,23.809999465942383,50.17399253845215,13.735042667388916,146.1632080078125,0.0
103,2.047410488128662,-0.006722318567335557,23.809999465942383,47.094627380371094,13.48107464313507,144.42160453796387,0.0
104,2.0461134910583496,-0.006323046947363716,23.809999465942383,49.02380952835083,14.063492155075073,150.1284942626953,0.0
105,2.044816493988037,-0.005685265909414697,23.812999534606934,49.77533597946167,13.399267315864563,170.14331512451173,0.0
106,2.043595790863037,-0.004701255634427012,23.812999534606934,47.82722816467285,15.355311131477356,180.1616611480713,0.0
107,2.0432143211364746,-0.0028055327216861227,23.817249631881715,47.95299129486084,12.965201711654663,158.68673210144044,0.0
108,2.0412685990333554,-0.0031561664160107625,23.81999969482422,50.84310131072998,13.857753157615662,136.8983917236328,0.0
109,2.0386745929718013,-0.0044123036379459775,23.821999740600585,49.54395570755005,13.713064599037171,135.1870445251465,0.002873743698000905
110,2.0377590656280513,-0.003932015108875883,23.82999992370605,51.65079374313355,13.391330742835999,155.37723541259766,0.008621231094002715
111,2.0362713336944576,-0.0039647125347982625,23.82999992370605,50.667887687683105,14.416972017288208,165.31589965820314,0.0
112,2.03573727607727,-0.0030228455842006502,23.82999992370605,51.87912111282348,13.91391942501068,162.99545249938964,0.0
113,2.0325708627700805,-0.004613788943970526,23.830749940872188,48.83943853378296,12.660561585426331,156.8702350616455,0.0
114,2.0287179946899414,-0.00654441290535029,23.84000015258789,51.42124519348145,13.374236989021302,148.75843467712403,0.0
115,2.0282602310180664,-0.005041422171052502,23.84000015258789,50.43467636108399,14.496947765350342,148.55706329345702,0.0
116,2.0276498317718508,-0.00381241070572282,23.84000015258789,49.60256404876709,15.177045583724976,155.0381103515625,0.0
117,2.0271919965744023,-0.00261430399841624,23.846250295639038,49.661172008514406,15.14163613319397,154.1549530029297,0.0
118,2.0237967967987065,-0.00419970237999219,23.850000381469727,48.77716722488403,12.810134291648865,141.50942993164062,0.0
119,2.0215461254119873,-0.004884894727729213,23.850000381469727,51.246031761169434,13.752747201919556,141.50942993164062,0.0
120,2.0184178411960603,-0.006317636801395523,23.854750490188597,47.40964593887329,14.032967138290406,145.96697921752929,0.0
121,2.017273426055908,-0.005428454990033012,23.86000061035156,49.91086721420288,13.70390739440918,150.23195877075196,0.0
122,2.0152134895324707,-0.005312197562307065,23.86000061035156,49.62026882171631,13.648351907730103,154.63917541503906,0.0
123,2.0142979621887207,-0.003998488467186648,23.860250616073607,49.93284482955933,13.29548225402832,154.69989776611328,0.0
124,2.0128101825714113,-0.0037375018582678854,23.8700008392334,48.315018272399904,13.175213766098022,152.51603813171386,0.0
125,2.0107882022857666,-0.0040759291092399,23.8700008392334,48.5677659034729,14.921245908737182,136.4709171295166,0.0
126,2.0112078368663786,-0.0023084348140400275,23.87824945449829,51.05982904434204,18.371795225143437,129.03262882232667,0.0
127,2.0084612369537354,-0.0037398724525700726,23.8799991607666,49.225885486602785,13.692307662963866,130.8641056060791,0.0
128,2.0060579776763916,-0.004653401620453175,23.8799991607666,48.65323572158813,13.461538696289063,137.82213287353517,0.0
129,2.0062105655670166,-0.00291589781409124,23.8799991607666,47.44383420944214,13.911477255821229,140.00054626464845,0.0
130,2.0050279796123505,-0.002950804863939935,23.880999183654787,50.81501836776734,19.286935806274414,137.81252822875976,0.0
131,2.0028533935546875,-0.0036796206550206525,23.88999938964844,49.12942619323731,14.873626685142517,134.02921924591064,0.0
132,2.0035400390625,-0.0016749064205213876,23.88999938964844,50.864468574523926,12.521977925300598,141.7058074951172,0.0
133,2.0025863647460938,-0.001876540406374215,23.896499538421633,50.40781440734863,13.569596862792968,141.67649841308594,0.0
134,2.00048828125,-0.00305891491589132,23.89624953269959,52.029304599761964,13.282051229476929,141.67649841308594,0.0
135,1.998809787631035,-0.0035421367385424173,23.899999618530277,49.509157276153566,13.175823974609376,141.67649841308594,0.0
136,1.997054934501648,-0.00409953821799712,23.899999618530277,50.46459102630615,14.32783887386322,141.67649841308594,0.0
137,1.9977034956216813,-0.0021970315981888725,23.90149965286255,51.628815269470216,17.705738592147828,138.82100524902344,0.0
138,1.9981994032859802,-0.000727286217104919,23.90999984741211,49.80402946472168,13.462759304046632,132.89036560058594,0.0
139,1.9952620267868042,-0.0027496803377288826,23.912749910354613,49.472527503967285,16.68192892074585,135.8271656036377,0.0
140,1.9957197904586792,-0.00133733408583788,23.920000076293945,48.54395570755005,14.608058857917786,135.13970069885255,0.0
141,1.9957579344511032,-0.0009547774359816401,23.920000076293945,51.09340629577637,13.439560461044312,137.29977416992188,0.0
142,1.992858648300171,-0.00327295803581359,23.920000076293945,45.93589735031128,15.712454462051392,134.83111877441405,0.0
143,1.992858648300171,-0.00216814903833433,23.920000076293945,49.00488414764404,22.003052330017088,120.19689655303955,0.0
144,1.9899594187736511,-0.004032324027502857,23.928500270843507,48.33394355773926,14.07509150505066,103.80882263183594,0.0
145,1.9888149499893188,-0.00403147540637287,23.93000030517578,49.057997417449954,15.091575074195863,116.42579574584961,0.0
146,1.9874416589736938,-0.00376807960565197,23.93000030517578,47.72161178588867,13.537240576744079,124.76344585418701,0.0
147,1.9886623620986938,-0.0013419321682703932,23.93000030517578,51.22222204208374,15.722222208976746,134.52766189575195,0.0
148,1.9899975210428233,0.0006520794908282775,23.93000030517578,50.50854721069336,12.34920630455017,134.8314666748047,0.0
149,1.9886623620986938,-0.00020478907390495999,23.9350004196167,49.6764349937439,14.080586147308349,135.48102531433105,0.0
150,1.9879757165908813,-0.00056446052767566,23.940000534057617,51.883394718170166,13.06593427658081,136.83010864257812,0.0
151,1.9906460702419282,0.0018147045688237527,23.940000534057617,49.87545804977417,13.442002391815185,136.83010864257812,0.0
152,1.9922864437103271,0.0027647994633298,23.940000534057617,49.37362623214722,14.393772959709167,137.9042091369629,0.0
153,1.9937361091375352,0.0034197362911072074,23.940000534057617,50.33394384384155,13.821733951568604,146.245751953125,0.0
154,1.989463484287262,-0.0012392628806992426,23.947500705718994,50.71978044509888,12.947496914863587,157.83803901672363,0.0
155,1.9870983362197876,-0.0036498239904175825,23.950000762939453,48.34371166229248,13.026862025260925,158.29941101074218,0.0
156,1.9856105148792262,-0.004589782172115465,23.950000762939453,52.099511528015135,13.587301564216613,151.51515197753906,0.0
157,1.986220914125442,-0.0028614949871552603,23.950000762939453,51.55006093978882,13.703296732902526,151.51515197753906,0.018679334037005883
158,1.9856105268001556,-0.002116938156541375,23.959499168395997,49.79365091323852,13.910866975784302,149.83370246887208,0.0
159,1.9821390420198441,-0.00398516015266063,23.959999084472656,51.206959915161136,14.113553142547607,146.34146118164062,0.0
160,1.9806512594223027,-0.004039161565015039,23.959999084472656,49.24236879348755,15.31013457775116,146.34146118164062,0.0
161,1.9816812366247176,-0.001955782940422015,23.967999267578122,49.58485927581787,14.221001434326173,144.1517478942871,0.0
162,1.980536818504334,-0.0022433474106946403,23.96999931335449,49.17094030380249,13.147741055488586,159.77145233154297,0.0
163,1.978438663482666,-0.0029547691301558526,23.96999931335449,47.078754615783694,15.118436717987061,153.97454223632812,0.0
164,1.9780571818351746,-0.0021342578387702226,23.96999931335449,49.009767818450925,13.07326011657715,136.6911319732666,0.0
165,1.9772560596466064,-0.0023146742925745827,23.96999931335449,48.95299139022827,13.849816989898681,139.2111358642578,0.0
166,1.9760735034942627,-0.002605317893903655,23.96999931335449,47.89743556976318,13.84371201992035,146.30374908447266,0.0
167,1.975920882821083,-0.001744137354216897,23.978249502182006,48.29548215866089,13.899267411231994,151.70669555664062,0.0
168,1.9735556840896606,-0.0032070693618151775,23.979999542236328,50.83760690689087,13.708180713653565,151.70669555664062,0.0
169,1.971152377128601,-0.004451071692164948,23.979999542236328,49.19841251373291,12.521367502212524,151.42610359191895,0.0
170,1.968672752380371,-0.005298550904262763,23.980249547958373,49.9926739692688,12.821733808517456,147.154451751709,0.0
171,1.9698934555053715,-0.0026195435260887726,23.989999771118164,51.849206352233885,13.225885152816772,146.1632080078125,0.0
172,1.9663838803768159,-0.004638480301946358,23.989999771118164,48.25152645111084,14.225884914398193,145.67659530639648,0.0
173,1.9638661056756974,-0.005104311206377997,23.989999771118164,50.62637367248535,12.238705897331238,143.70329627990722,0.0
174,1.9634464651346206,-0.0037546587642281774,23.989999771118164,49.89560451507568,13.697191858291626,143.0499153137207,0.037358668260276284
175,1.963866114616394,-0.00212411539978344,23.995999908447267,53.241147708892825,15.755799841880798,142.04978942871094,0.0352033609524369
176,1.9635609149932862,-0.0014026165074028049,24.0,49.77960920333862,13.194749855995179,141.03888511657715,0.04418381024152038
177,1.962988665699959,-0.0008867688107784091,24.003500080108644,51.76556787490845,14.62148962020874,134.2281951904297,0.002873743698000905
178,1.9605090618133545,-0.00275147983920755,24.01000022888184,46.98168506622314,12.042735123634339,133.22403984069825,0.015805590339004978
179,1.9605090618133545,-0.0020820912846829303,24.01000022888184,50.334554290771486,13.39133083820343,135.36798248291015,0.01472793649882077
180,1.9587161064147949,-0.0031353587430202703,24.015250349044802,51.325396823883054,14.299145269393922,135.9003448486328,0.07381928991526361
181,1.956541657447815,-0.004018986807204735,24.020000457763672,50.489011192321776,12.783272314071656,135.9003448486328,0.0
182,1.9560838699340821,-0.003129459550837003,24.029000663757323,50.468253993988036,13.860806035995484,148.73241806030273,0.0
183,1.95638906955719,-0.0016271716127448134,24.030000686645508,50.15873031616211,13.57203917503357,156.1190979003906,0.039693584479391544
184,1.95669424533844,-0.000670045898186785,24.030000686645508,48.318070793151854,13.102564072608947,169.0140838623047,0.09483354222029441
185,1.9551682829856873,-0.00136531250245749,24.03775086402893,57.446276092529295,13.191086530685425,168.1643901824951,0.09698884729295962
186,1.9563509225845337,0.00018644446481629948,24.042000579833985,32.84798560142517,16.14163589477539,164.15869140625,0.15087154172360892
187,1.9618823915719985,0.005381675131502505,24.049999237060547,51.71917014122009,16.14163589477539,164.15869140625,0.07992599681019777
188,1.9829401552677155,0.023422376695088985,24.049999237060547,60.63553133010864,31.286935806274414,161.29851684570312,0.1934388669207692
189,2.01815088391304,0.04986729407683006,24.049999237060547,47.19169721603394,37.77777862548828,160.213623046875,0.22163747958838936
190,2.045617562532425,0.06170443119481197,24.049999237060547,50.00976791381836,27.08058633804321,156.81051635742188,0.24839921221137043
191,2.0535142421722417,0.05103207314386955,24.049999237060547,50.601342868804934,12.920634770393372,143.19808959960938,0.29940816834568973
192,2.0498901546001433,0.028835677728056834,24.049999237060547,46.589743518829344,15.573260140419006,138.08731384277343,0.03556257858872412
193,2.0421460926532746,0.006063161867496067,24.05649938583374,50.13308916091919,13.345543432235718,125.77830772399902,0.0
194,2.03264719247818,-0.011038066563196437,24.059999465942383,45.4676435470581,13.656288242340088,124.3705047607422,0.07453772667795414
195,2.0246742248535154,-0.018302590446546627,24.061499500274657,38.05067148208618,13.691697525978089,119.76048278808594,0.15500254761427637
196,2.017197185754776,-0.019918256485834677,24.06999969482422,51.911477422714235,16.825397491455078,117.40496025085449,0.12500785011798138
197,2.007965314388275,-0.021275684423744633,24.06999969482422,60.022588443756106,35.55799646377564,109.00927848815918,0.3822079047560692
198,1.9980086594820023,-0.022544093709438988,24.06999969482422,49.32661781311035,27.750303959846498,107.63207950592042,0.15859472583979364
199,1.9921720027923584,-0.01985308555886145,24.06999969482422,50.9841269493103,16.65750925540924,112.65417861938477,0.08010560516268006
200,1.9929731339216232,-0.011808934225700743,24.077499866485592,52.1764349937439,14.280830430984498,143.0501962661743,0.04364498276263472
201,1.9987334638834,-0.00106497478918754,24.078499889373777,48.89804649353027,13.476190757751464,147.42015075683594,0.027300565503537634
202,2.00201416015625,0.004643685475457413,24.06999969482422,50.7924298286438,13.456044054031372,160.81098327636718,0.0
203,2.001708984375,0.00464168728794898,24.06999969482422,49.54090356826782,13.744810676574707,164.15869140625,0.0035921797156333903
204,1.998733475804329,0.000644021503831015,24.079249906539914,52.17826623916626,13.781440544128419,163.74437789916993,0.018320116400718674
205,1.9955671846866607,-0.0035635002655907974,24.083500003814695,47.87545795440674,14.47191686630249,162.51935424804688,0.06627571471035475
206,1.9912946075201035,-0.0074275415623560005,24.094000244140624,48.106227207183835,15.079975295066834,161.2920654296875,0.039693585038185084
207,1.9893871754407884,-0.00721127715660253,24.100000381469727,47.326007175445554,16.43956062793732,160.42809295654297,0.06591649465262885
208,1.9967497676610946,0.00210425840305106,24.091500186920165,49.498168277740476,18.818071150779723,146.42474670410155,0.10291594434529536
209,2.0155568182468415,0.019896236318163524,24.092750215530394,45.38949913978577,14.136751914024353,139.1100746154785,0.10902265142649407
210,2.0432523787021637,0.041344230715185316,24.100000381469727,51.8601954460144,19.41941406726837,129.16991558074952,0.12949807457625861
211,2.078386789560318,0.06307179732248183,24.10100040435791,49.86507978439331,22.522587895393368,126.07376518249514,0.0962704122066497
212,2.106463849544525,0.07057328820228577,24.11000061035156,48.55982894897461,13.991452980041505,126.05042266845706,0.11207600329071277
213,2.128246384859085,0.06785602122545242,24.11000061035156,53.97924280166626,16.308913278579713,138.70951652526855,0.15338606759905812
214,2.1599856674671174,0.07205991111695766,24.115750741958614,49.87973136901856,17.83211224079132,149.11676139831542,0.0928578414022922
215,2.1952345311641692,0.07795013785362241,24.1200008392334,50.860195350646975,14.968254137039185,162.82225036621094,0.07705225255340331
216,2.219954562187195,0.07253605816513298,24.1200008392334,50.78266162872315,17.479853773117064,154.33673095703125,0.09537236969918006
217,2.219153416156769,0.04609724027104674,24.1200008392334,49.75702075958252,15.246031570434571,146.61215209960938,0.07920756097882978
218,2.203817868232727,0.011725263257449074,24.1200008392334,48.25030527114868,15.429792404174805,140.8126319885254,0.03484414163976905
219,2.17719047665596,-0.02472806198056781,24.12524995803833,46.10500636100769,17.221000814437865,141.1764678955078,0.115668180771172
220,2.142818975448608,-0.055944990366697235,24.1299991607666,51.08302812576294,18.43895015716553,141.21388320922853,0.12698354627937072
221,2.10589160323143,-0.07621267102658749,24.13949937820435,48.69658117294311,18.568375682830812,152.35775451660157,0.1021975083276629
222,2.0778526842594145,-0.0780685979872942,24.140999412536623,52.31868085861206,20.449939012527466,171.25518112182618,0.09231901541352266
223,2.0799127221107483,-0.049228294938802715,24.149999618530277,47.70024409294128,18.072039079666137,155.79791870117188,0.14817740805447097
224,2.1032975375652314,-0.005735847252071833,24.149999618530277,49.482906103134155,18.00976800918579,146.41541900634766,0.2275645753368735
225,2.119624924659729,0.02021347801201042,24.152249670028688,54.97619028091431,13.203907203674316,146.03049545288087,0.09070253372192374
226,2.1238212585449223,0.025181107269600007,24.15999984741211,47.208791208267215,10.866910934448242,146.1632080078125,0.14763858318328854
227,2.1167256593704225,0.012047932232962882,24.160499858856202,50.0970694065094,19.785103607177735,141.66703338623046,0.2780347019433975
228,2.101542717218399,-0.009635798989256695,24.170000076293945,46.62515268325806,22.017093849182128,135.7451904296875,0.13416790608316656
229,2.0883816123008727,-0.023605256527662245,24.170000076293945,50.77472524642944,16.346764373779298,125.93439025878907,0.021912296116352065
230,2.074381226301193,-0.0315003104507923,24.170000076293945,45.68620262145996,14.0647132396698,92.88922290802002,0.0718435943126678
231,2.0609912157058714,-0.034118160698562855,24.179000282287596,50.48656892776489,14.490842604637146,116.51597633361817,0.05388269573450085
232,2.0464186668395996,-0.03532491866499184,24.18000030517578,49.815628623962404,14.19536018371582,132.30430603027344,0.00574748739600181
233,2.0319986641407013,-0.035845436062663785,24.187250471115114,52.31623945236206,13.549450373649597,148.90619277954102,0.028019001707434637
234,2.020249032974243,-0.033816925622522816,24.190000534057617,48.721611404418944,15.863247609138488,155.75411224365234,0.048674032837152444
235,2.0117419958114624,-0.029076972231268844,24.19525065422058,51.9529914855957,14.924908423423767,164.95409660339357,0.0
236,2.006210523843765,-0.022874253941699823,24.200000762939453,50.721611976623535,13.38278386592865,164.12223777770996,0.02694134749472139
237,2.002166748046875,-0.01682161607313896,24.200000762939453,50.853480052948,14.128204822540283,171.02091217041016,0.04023241177201267
238,1.9998779296875,-0.011479768273420576,24.200000762939453,49.01282024383545,13.783882856369019,173.04964447021484,0.02298994958400724
239,1.9991531193256378,-0.0068409326486289,24.200000762939453,50.45726470947265,15.999389338493348,142.5849781036377,0.0
