sec,SCL,SCR,BVP,PVA,HR,MOTION
0,2.882549524307251,0.0010000000474974,56.57997579574585,0.0,30.0,1.060411423444748
1,2.998825031518936,0.0010000000474974,49.766178131103516,0.0,30.0,0.6460534900426864
2,3.0255287647247315,0.0010000000474974,49.02869338989258,0.0,30.0,0.1365028243511915
3,3.0132450461387634,0.1849896766041638,51.13308916091919,11.951159858703614,34.700802898406984,0.0
4,2.9983672380447386,0.1290953588671982,49.482295513153076,13.968254089355469,34.662044525146484,0.0
5,3.006607270240784,0.004856760173515752,49.99084205627442,11.367521476745605,38.27613925933838,0.0
6,3.0242316722869873,0.012066312110982795,49.00244197845459,10.970696020126343,57.128273010253906,0.0
7,3.057191699743271,0.041628534207120496,50.177045059204104,11.109890007972718,71.38550415039063,0.0
8,3.1329157412052155,0.10199296921491618,49.96398038864136,11.827839183807372,79.85569324493409,0.0
9,3.1871242463588714,0.12550297062844035,49.43528699874878,11.006104850769042,81.12727890014648,0.0
10,3.2735297799110414,0.16619462631642812,50.46214904785156,11.501220560073852,80.32715435028076,0.0
11,3.389271205663681,0.21938155442476273,49.18559188842774,11.669718885421753,80.95280570983887,0.0
12,3.5836359918117524,0.32466461881995196,49.36446876525879,11.257630825042725,80.40959930419922,0.0
13,3.748550349473953,0.37324088811874384,49.07509155273438,11.40170946121216,78.25745544433593,0.0
14,3.7341685235500335,0.24134586006402964,50.23565330505371,11.323565006256104,76.47715244293212,0.0
15,3.7298959136009215,0.13714234828948968,49.97374811172485,10.5671550989151,73.73006114959716,0.0
16,3.775864440202713,0.09865329600870601,49.28754587173462,10.592185544967652,73.34457817077637,0.0
17,3.767281103134155,0.0296709489268323,49.44444456100464,10.798534870147705,74.8132734298706,0.0014368718490004526
18,3.723525208234787,-0.026058735535480028,50.23809518814087,10.122100067138671,75.86846237182617,0.027120956219732734
19,3.7836085081100466,0.034928103012498414,49.08608055114746,9.995726776123046,76.16042346954346,0.0
20,3.8643681406974792,0.0943984545767307,49.521367359161374,10.840048909187317,75.93738079071045,0.0
21,3.811571091413498,0.022985319819417743,50.58241729736328,11.242368578910826,77.9361686706543,0.0
22,3.7471007466316224,-0.040001289453357416,49.765567779541016,11.486568760871886,78.86955795288085,0.0
23,3.8569673717021944,0.06094076032459268,49.70818090438843,11.59951114654541,73.10190124511719,0.0
24,3.9698858737945555,0.13612990882247683,49.70207586288452,11.835774922370911,68.56955623626709,0.0
25,3.8782921850681307,0.0246124191128274,49.51404142379761,12.39316213130951,66.61491680145264,0.0
26,3.786927396059036,-0.06282268669456241,49.15140409469605,11.89621489048004,66.14353580474854,0.0
27,3.746566689014435,-0.10134343840181825,49.934065914154054,11.733821487426757,66.67110061645508,0.0
28,3.7290948271751403,-0.10907165501266716,50.2692307472229,12.272283220291138,71.036448097229,0.0
29,3.714903688430786,-0.08154798904433842,48.83699655532837,11.746031761169434,73.90540218353271,0.0
30,3.708685576915741,-0.04339481359347697,49.26923084259033,11.539682722091674,75.930419921875,0.0
31,3.7032685220241546,-0.024340767308603913,50.79120874404907,11.545787382125855,78.53635444641114,0.0
32,3.768234819173813,0.0475232295742898,49.33638591766358,11.965811729431152,79.35600814819335,0.0
33,3.8266777634620666,0.09191282857209435,48.74603185653687,12.03418779373169,77.03104705810547,0.0
34,3.7748725712299347,0.023945127625483953,49.41697177886963,12.161171913146973,72.08552074432373,0.0
35,3.7908566653728486,0.02716524465940886,50.270451641082765,11.106226921081543,69.27882804870606,0.0
36,3.8007751524448397,0.017328504617762478,51.003052425384524,10.532356452941894,70.69699592590332,0.0
37,3.7345881521701814,-0.056801422080025046,49.476800537109376,10.481074714660645,74.49395141601562,0.0
38,3.6851481676101683,-0.08630398251116271,48.95726518630981,10.964591026306152,76.50562591552735,0.0
39,3.6581392884254456,-0.0867536667734384,49.388278293609616,11.191697239875795,76.21683139801026,0.0
40,3.6358607590198515,-0.08345774002373213,50.18437128067016,11.031745648384094,73.77336101531982,0.0
41,3.6148030042648314,-0.06879067271947856,49.67277183532715,11.042734718322754,73.54006958007812,0.0
42,3.614917439222336,-0.037532322900369716,49.76800975799561,11.511599159240722,75.1907974243164,0.0
43,3.630863356590271,-0.004929802518745373,50.714285659790036,11.726495265960693,75.99796485900879,0.0
44,3.627468192577362,0.00025029126991285257,49.161172008514406,11.030524611473083,76.32743396759034,0.0
45,3.64947966337204,0.02387192749883977,48.921855735778806,10.903540611267088,76.26348495483398,0.0
46,3.6338770568370817,0.004311845140909998,49.90781440734863,10.493894696235657,76.02304649353027,0.011674583703279482
47,3.6169393062591553,-0.014808820420876103,50.10500602722168,10.133089160919189,78.05321502685547,0.09303745180368421
48,3.648678553104401,0.016512989514012567,49.334554290771486,10.936508035659791,81.98210678100585,0.0
49,3.772736293077469,0.12460386008024209,49.5164834022522,9.6385840177536,81.63143043518066,0.0287374375388026
50,3.838770705461502,0.15480845570564267,50.13553113937378,8.434676432609558,78.1889419555664,0.008621231094002715
51,3.8254188537597655,0.10492052324116222,50.12454252243042,6.862026929855347,75.07635917663575,0.0
52,3.9182714402675627,0.14941673483699558,49.533577823638915,6.22161169052124,74.41454315185547,0.0
53,4.03424174785614,0.19466546140611168,49.911477184295656,5.8998777866363525,76.2485834121704,0.0
54,4.086809957027436,0.17516477629542349,48.81074466705322,5.299145221710205,80.53281803131104,0.01149497479200362
55,4.0884884119033815,0.12324455510824914,49.561050224304196,4.747252893447876,83.78717021942138,0.0017960898578166951
56,4.145023941993713,0.12300158683210607,50.01404151916504,5.289987874031067,83.57255535125732,0.1891282524913549
57,4.232154297828674,0.14551914483308787,49.30647115707397,5.590964496135712,82.21452503204345,0.06124666146934029
58,4.343966484069824,0.19597573839128013,49.972527503967285,4.820512771606445,79.28799228668213,0.0
59,4.4578768610954285,0.24187242649495602,50.05799798965454,4.91452989578247,77.06856422424316,0.0
60,4.465468323230743,0.17347312048077582,49.60561656951904,4.219780349731446,76.45260620117188,0.0
61,4.396725356578827,0.04037475792210897,49.31501846313476,3.809523820877075,76.51231861114502,0.0
62,4.415761256217957,0.018766874443099373,49.60012226104736,3.6782661974430084,77.55446453094483,0.0
63,4.592730522155762,0.15289400238543743,49.95543327331543,3.8339438438415527,82.77878665924072,0.0
64,4.706678986549377,0.2143669459968805,50.29609279632568,3.8339438438415527,84.03361511230469,0.0
65,4.633930480480194,0.10000009257346387,49.289377498626706,4.5006104707717896,84.57905349731445,0.030892744474112954
66,4.56831568479538,0.0019501975868479325,49.52686185836792,5.528083074092865,82.8412519454956,0.0
67,4.5156331062316895,-0.08138311039656393,49.49877901077271,5.372405529022217,80.8080825805664,0.0
68,4.472907185554504,-0.1210173105821013,49.815629196166995,4.962149143218994,79.93963470458985,0.0
69,4.602229368686676,0.03621592376439364,49.55067129135132,4.818070983886718,81.85458030700684,0.0
70,4.673184943199158,0.11182688213884825,49.34920673370361,5.501221024990082,87.44075508117676,0.0
71,4.616077136993408,0.044848455907776905,49.92673978805542,5.692307829856873,91.44374122619628,0.0
72,4.597651481628418,0.014946919362773708,50.22649564743042,5.220390868186951,87.12292613983155,0.0
73,4.555269038677215,-0.04700637449277559,49.703296756744386,4.3528693318367,77.37237854003907,0.0
74,4.450476098060608,-0.1470225866883993,49.55677652359009,3.4188034534454346,73.74213314056396,0.0
75,4.392681646347046,-0.15729826353490353,49.27167282104492,3.264957308769226,74.08346939086914,0.0
76,4.370212554931641,-0.12628965862095357,49.106227207183835,3.1990232467651367,74.62686920166016,0.0
77,4.38447984457016,-0.06659949645400047,49.948107433319095,3.2936508417129517,75.39500751495362,0.0
78,4.3641850233078,-0.046321561373770234,49.97985343933105,4.798534989356995,83.0992446899414,0.0
79,4.321726107597351,-0.05658425027504562,49.78754596710205,5.798534774780274,86.3687177658081,0.0
80,4.31035795211792,-0.04649182702705727,49.24297914505005,6.6556777358055115,87.63315353393554,0.0
81,4.442541301250458,0.08768479204736648,49.82051267623901,6.954823017120361,86.0085506439209,0.0
82,4.48828091621399,0.11134839020669458,49.85470094680786,7.0024420619010925,80.31140480041503,0.0
83,4.434568321704864,0.042590266838669774,50.19169731140137,6.293650698661804,76.4531442642212,0.0
84,4.455282688140869,0.042765758279711,49.58974342346191,5.518925666809082,73.61426448822021,0.0
85,4.474929058551789,0.031564851710572814,49.61416368484497,5.326617860794068,73.81176948547363,0.0
86,4.4736701130867,0.00776613158886902,49.71001234054565,5.474969387054443,78.55498790740967,0.0
87,4.379596877098083,-0.07523049516603349,49.239926719665526,5.855921745300293,82.52179050445557,0.0
88,4.303796482086182,-0.12718939557671544,49.446886253356936,6.617826461791992,82.1190200805664,0.0
89,4.272438776493073,-0.12681590523570774,50.458485984802245,6.852258682250977,79.58988037109376,0.08764918204396957
90,4.256721639633179,-0.10215119980275629,49.197801971435545,6.299755895137787,74.79742622375488,0.026582128927111603
91,4.329393923282623,0.009480586155405011,49.37789964675903,6.25335773229599,75.08365154266357,0.0
92,4.395275747776031,0.08663956448435783,49.99511585235596,6.307692337036133,78.65176753997802,0.0
93,4.32210762500763,0.008075824186380465,49.77716703414917,5.318681335449218,80.99579315185547,0.0
94,4.270149838924409,-0.04415952609851954,49.92979249954224,4.157509213685989,82.83514595031738,0.0
95,4.315889441967011,-0.0036613174903322976,49.52625169754028,3.5494505763053894,84.14019660949707,0.0
96,4.343241703510285,0.012760201600030958,49.3846152305603,3.453601986169815,82.92549991607666,0.0
97,4.273926496505737,-0.04422354237176475,49.71855907440185,3.5897436141967773,78.42465019226074,0.0
98,4.203085422515869,-0.08912158664315935,49.93772916793823,3.3791209161281586,74.28769187927246,0.0
99,4.171384334564209,-0.09992176778614517,49.472527503967285,2.6434677243232727,72.88115310668945,0.0
100,4.205679488182068,-0.04461962043424133,49.3754581451416,3.192918241024018,76.1342342376709,0.0
101,4.268891012668609,0.03774277453776442,49.71733827590943,3.7667887806892404,79.67151069641113,0.0
102,4.2643132448196415,0.041836358048021716,49.82661762237549,4.42674001455307,82.3176040649414,0.0
103,4.308526873588562,0.07742731869220726,50.094627666473386,4.572039270401001,83.63827972412109,0.08495504800230262
104,4.334162402153015,0.07352800723165265,49.32295484542847,4.242979228496552,84.61436309814454,0.21104054693132634
105,4.373340570926667,0.08133628573268648,49.7527473449707,5.9035409450531,84.79078559875488,0.14602210056036705
106,4.57663197517395,0.23852561898529526,49.8931622505188,6.432844817638397,83.35759925842285,0.03592179641127583
107,4.736510837078095,0.31953107640147205,49.32539701461792,3.980463981628418,81.96721649169922,0.0
108,4.879261171817779,0.3553505390882492,49.71428546905518,3.980463981628418,81.96721649169922,0.0
109,4.982451856136322,0.3380523771047592,49.701465129852295,3.5787546038627625,79.98746337890626,0.0
110,5.027962565422058,0.24983324296772474,49.63614168167114,2.7564103305339813,80.36978816986084,0.0
111,5.028420329093933,0.1382482465356588,49.42612934112549,2.8327229022979736,80.8080825805664,0.0
112,5.019035947322846,0.05779970968142147,49.53907222747803,2.969475030899048,81.1585247039795,0.0
113,5.06763664484024,0.05975266089662904,50.14590940475464,3.989011162519455,83.62358436584472,0.015805590339004978
114,5.089113998413086,0.05254157334566112,49.38339424133301,4.515873038768769,85.2913833618164,0.0
115,5.153431820869446,0.09480175543576475,49.60989007949829,4.098290729522705,82.16182022094726,0.007184359245002263
116,5.107272565364838,0.025979884687694698,49.799145221710205,4.224664211273193,79.06307945251464,0.0
117,4.9894710898399355,-0.09624377721920603,50.01465187072754,4.152014642953873,77.1641242980957,0.0
118,4.950674426555634,-0.1196631854400038,49.425518894195555,3.7283272445201874,78.10626811981201,0.0
119,4.914357388019562,-0.12671450469642875,49.23992652893067,3.6697191894054413,82.93644905090332,0.0
120,4.945867764949798,-0.05579478948493485,49.18742399215698,4.087912082672119,86.20705738067628,0.0
121,5.015297365188599,0.045544034615159,49.886446952819824,4.601343202590943,84.99181213378907,0.0
122,5.000038146972656,0.0362269956967793,50.0396824836731,3.931624013185501,79.08646869659424,0.0
123,4.931714880466461,-0.032694473689843975,49.656287860870364,3.1599512100219727,72.65375003814697,0.0
124,4.855647444725037,-0.09999697078019376,49.624542236328125,3.028083086013794,71.42857360839844,0.0
125,4.812768959999085,-0.12536169271916148,49.381563091278075,3.028083086013794,71.42857360839844,0.0
126,4.775955939292908,-0.12307316660881037,49.29548225402832,3.028083086013794,71.42857360839844,0.0
127,4.761650443077087,-0.08836485203355549,50.009768104553224,2.9853480458259583,71.12069129943848,0.0
128,4.713278591632843,-0.09105406906455751,49.97008562088013,2.6862027645111084,68.96551513671875,0.0
129,4.6763893365859985,-0.08816965529695149,49.763125801086424,3.492063522338867,68.23494815826416,0.0
130,4.756996369361877,0.01789194438024421,49.59157524108887,4.191697371006012,69.82981185913086,0.02298994958400724
131,4.834208226203918,0.09175703991204491,49.45604362487793,4.573870778083801,72.90852069854736,0.03646062314510341
132,4.827913737297058,0.07372436393052331,50.11599531173706,4.258852481842041,77.88147583007813,0.00574748739600181
133,4.859347856044769,0.08379181874915952,49.878510093688966,4.092796093225479,82.89738521575927,0.0
134,4.779274880886078,-0.02397495077893836,49.25457878112793,3.6678876876831055,83.66450653076171,0.004310615547001358
135,4.675740826129913,-0.13096748180687423,49.76251535415649,3.3229548633098602,82.4017936706543,0.0
136,4.633091163635254,-0.14155116304755205,49.55067148208618,3.4175824522972107,82.16794128417969,0.0
137,4.691114521026611,-0.04976846163626755,49.76251535415649,3.284493327140808,84.1993309020996,0.0
138,4.701376378536224,-0.011748323503707015,49.58913326263428,3.443223476409912,86.8043752670288,0.0
139,4.628666031360626,-0.051413220167159976,49.54517707824707,3.702686220407486,87.02989234924317,0.0
140,4.593111991882324,-0.06336518218740815,49.52197799682617,3.971306473016739,86.50999526977539,0.0
141,4.598757934570313,-0.046499669901095275,49.780219841003415,4.457875430583954,86.64470443725585,0.0
142,4.662274467945099,0.02216216348783743,50.26434679031372,5.018314957618713,86.71033744812011,0.0
143,4.638546407222748,0.00756884930597151,49.490842533111575,5.118437051773071,83.62781810760498,0.004310615547001358
144,4.557939374446869,-0.05906603708863252,49.329670429229736,5.25030517578125,81.8576774597168,0.0
145,4.525284540653229,-0.07731748186051837,49.71489610671997,5.606837737560272,81.62196922302246,0.0
146,4.559083783626557,-0.033565149409696404,49.534798526763915,6.092796087265015,82.07949829101562,0.0
147,4.531807935237884,-0.045646513579413225,49.57997541427612,6.532967054843903,81.94789905548096,0.0
148,4.457037568092346,-0.08665808085352175,50.10683765411377,6.581196451187134,79.17051544189454,0.0
149,4.4310586810112,-0.08083147620782252,49.50305233001709,6.666666507720947,76.27425613403321,0.0
150,4.521622383594513,0.023042613580764735,49.40170946121216,6.5054943561553955,73.60695114135743,0.0
151,4.606196784973145,0.10076581817120309,50.023809623718265,6.539682388305664,76.85766220092773,0.0
152,4.546723854541779,0.03503714807084177,49.64102602005005,6.920634746551514,80.21929931640625,0.0
153,4.443571293354035,-0.0677241339348256,49.24542179107666,7.493894934654236,80.92395973205566,0.0
154,4.3911938786506655,-0.11527286898344755,49.84432229995728,6.833333218097687,79.05539016723633,0.0
155,4.370937240123749,-0.11815265361219644,49.66605625152588,6.451770544052124,77.42002868652344,0.0
156,4.369029831886292,-0.07902518138289452,49.59279613494873,6.515872979164124,77.14940299987794,0.0
157,4.374294281005859,-0.0310666400939226,49.64590969085693,6.344932889938354,78.19858360290527,0.0
158,4.353122019767762,-0.026683699665591094,49.12026882171631,6.0463979840278625,78.2371810913086,0.07238241750746961
159,4.328859877586365,-0.036298312246799455,49.76495723724365,6.162393164634705,78.45433311462402,0.09914415720850225
160,4.367007982730866,0.010447756748180848,49.88583650588989,6.852258682250977,76.92269515991211,0.0
161,4.515671277046204,0.14426878988742825,50.39865674972534,5.5653234958648685,76.2755558013916,0.0
162,4.528641653060913,0.12401987472549078,49.45665426254273,5.442613005638123,77.17129230499268,0.0
163,4.439222371578216,0.011644471931504096,49.42307710647583,5.641025543212891,79.16574954986572,0.0
164,4.4521546244621275,0.005501785068190655,49.5769229888916,5.787545680999756,81.24195880889893,0.0
165,4.52085942029953,0.044035595282912225,49.446275806427,5.934065818786621,84.08414840698242,0.0
166,4.542909073829651,0.046616305597126456,50.3760684967041,6.649572491645813,83.73486080169678,0.0
167,4.508232378959656,0.014442778774537096,49.7210015296936,6.308913207054138,81.50403480529785,0.0
168,4.530091238021851,0.030415015039034144,49.48229560852051,5.665445804595947,77.18488445281983,0.0
169,4.564272022247314,0.04047892002854492,49.61477432250977,5.514652049541473,71.64414978027344,0.0
170,4.49938200712204,-0.033743842923649875,49.662393188476564,5.484737396240234,71.72157878875733,0.0
171,4.453260934352874,-0.06652473751455537,48.9694748878479,5.48840057849884,75.66275787353516,0.0
172,4.491409087181092,-0.016389534686459185,49.85042724609375,6.065323555469513,77.94705066680908,0.0
173,4.554696786403656,0.044798809173516876,49.849816703796385,6.984127044677734,78.15653610229492,0.0
174,4.655560445785523,0.13501728363335128,50.098901176452635,6.559218645095825,76.89124908447266,0.0
175,4.612987160682678,0.06991621333872895,49.61843719482422,6.463980555534363,75.91815853118896,0.0
176,4.517731261253357,-0.043216265772934935,49.56898670196533,6.4273505210876465,75.82460021972656,0.0
177,4.476798343658447,-0.08930665459483852,49.95054941177368,6.402930331230164,78.06998977661132,0.0
178,4.454710602760315,-0.10050198081880798,49.081807136535645,6.682539653778076,80.62189445495605,0.0
179,4.43514062166214,-0.08750080559402697,49.84920644760132,7.406593203544617,82.24995994567871,0.0
180,4.426023066043855,-0.052850522473454384,49.561660575866696,7.656288123130798,82.27238674163819,0.0
181,4.411755692958832,-0.03872528597712514,49.59951171875,7.426129221916199,80.35269527435302,0.0
182,4.410267925262451,-0.023185334983281767,49.996337223052976,7.41697188615799,78.10848751068116,0.0
183,4.413777601718903,-0.00944464039057487,49.282051467895506,6.739316082000732,79.37515392303467,0.0
184,4.4061479568481445,-0.010250881756655806,49.73199043273926,7.241147685050964,80.91612300872802,0.0
185,4.392185747623444,-0.018213480385020336,50.21306486129761,7.854700863361359,82.2372449874878,0.0
186,4.364909839630127,-0.037362448358908285,49.30036602020264,7.625763070583344,80.87530117034912,0.0
187,4.344500648975372,-0.04671210478991269,49.512820625305174,7.741147518157959,79.54408264160156,0.0
188,4.322031271457672,-0.05332178790122268,49.99084243774414,7.7753355503082275,79.87776432037353,0.0
189,4.294106841087341,-0.06096274647861717,49.73565330505371,7.8998777866363525,82.2220230102539,0.0
190,4.291016829013825,-0.041533692227676486,50.12271070480347,8.583638525009155,85.12368621826172,0.0
191,4.304864692687988,-0.012063916516490232,48.989621829986575,7.87057363986969,85.01712570190429,0.0
192,4.2886516690254215,-0.01638089755724646,49.3003662109375,8.046397924423218,82.2982177734375,0.0
193,4.348887622356415,0.04773024315945799,49.62393178939819,8.156288146972656,78.37890853881837,0.0
194,4.3572039127349855,0.044885637733386774,50.20451774597168,7.6544564962387085,76.38425235748291,0.0
195,4.296281254291534,-0.023166689869958613,49.524420166015624,7.99572639465332,76.45382404327393,0.0
196,4.291512894630432,-0.025821889098733612,49.4316237449646,8.460317659378052,76.77967548370361,0.0
197,4.276100981235504,-0.0398123734630644,49.80341911315918,8.004884052276612,77.12087745666504,0.0
198,4.242454290390015,-0.06226801434531805,49.69536046981811,7.6874237060546875,76.96169242858886,0.0
199,4.217238366603851,-0.06074436306953427,49.557386779785155,6.935286998748779,76.26103019714355,0.0
200,4.192213225364685,-0.06155544128268953,50.12271089553833,6.749694776535034,79.24926109313965,0.0
201,4.1739784479141235,-0.0585554338060319,49.22710628509522,7.429181838035584,80.93524627685547,0.0
202,4.167684042453766,-0.04086738247424359,49.276556968688965,7.554334425926209,80.99365539550782,0.0
203,4.230208742618561,0.03478441763727456,50.19902305603027,7.509157299995422,77.60343036651611,0.0
204,4.32439649105072,0.11888356301933523,49.839438152313235,7.523809385299683,75.01627883911132,0.0
205,4.333208727836609,0.1009840180166065,49.31135530471802,7.144078063964844,76.1342342376709,0.0
206,4.267174243927002,0.011404132869211013,49.96031742095947,7.213675212860108,78.72284622192383,0.0
207,4.235320568084717,-0.035909420857205956,49.43406600952149,7.828449153900147,77.90511360168458,0.0
208,4.236236095428467,-0.04409848581999537,49.29853467941284,8.012820410728455,76.55806484222413,0.0
209,4.221968746185302,-0.048285951931029525,49.619657802581784,7.797313570976257,75.93257389068603,0.0
210,4.243827617168426,-0.004383762077486598,49.9151406288147,7.6379730820655825,77.24340572357178,0.0
211,4.315774989128113,0.07242553234100334,49.35225877761841,7.423687219619751,79.37761306762695,0.0
212,4.345873939990997,0.0834246573969721,50.167887687683105,7.986568760871887,82.27337036132812,0.0
213,4.288956892490387,0.010562720107554891,49.50671548843384,7.862026870250702,82.13374214172363,0.0
214,4.316118335723877,0.024453376652672814,49.423687648773196,8.04151430130005,80.33147964477538,0.0
215,4.341257917881012,0.028188874170882554,49.81684970855713,7.77045168876648,79.92037773132324,0.0
216,4.3212682723999025,-0.0019015448346180852,49.18315029144287,7.840049052238465,81.36276264190674,0.0
217,4.377460575103759,0.053201571106910664,49.75213680267334,8.20512866973877,81.98708877563476,0.0
218,4.376888358592987,0.03844794491596983,50.03357744216919,8.137972927093506,81.3417615890503,0.0
219,4.303758358955383,-0.04326330686453727,49.55006122589111,7.33821713924408,78.5561487197876,0.0
220,4.26561028957367,-0.07095946893095968,49.5225887298584,6.619047594070435,76.93641204833985,0.0
221,4.258476531505584,-0.06362171908840535,49.57936553955078,6.282661712169647,74.79622421264648,0.0
222,4.30070652961731,-0.008579969400307166,49.74847383499146,6.234432291984558,74.97504844665528,0.0
223,4.288384664058685,-0.0033304311645224404,49.13125801086426,6.199023067951202,75.64881210327148,0.0
224,4.240089094638824,-0.03650871873833235,50.08363838195801,6.4084247827529905,78.69571380615234,0.0
225,4.215788805484772,-0.04919289108365771,49.509157466888425,7.3778998255729675,83.16972255706787,0.0
226,4.25664541721344,-0.0035217682365328027,49.374847412109375,7.551892495155334,83.71941604614258,0.0
227,4.261413943767548,0.0037599171992041902,50.14835147857666,7.123321175575256,82.17967643737794,0.0
228,4.209723222255707,-0.034528501331806134,49.31013422012329,6.3577533721923825,80.70027008056641,0.0
229,4.179967606067658,-0.05016410611569877,49.557387351989746,6.405372262001038,81.0485107421875,0.0
230,4.169553279876709,-0.050517804175615265,49.99023170471192,7.269230616092682,81.76692333221436,0.0
231,4.190038776397705,-0.019072500962647558,49.302808380126955,7.873015880584717,80.99525146484375,0.0
232,4.199919104576111,0.004367259577338658,49.64407825469971,7.814407825469971,79.25300788879395,0.0
233,4.181569826602936,-0.004691050775727452,50.26556787490845,7.79242959022522,77.8838083267212,0.00574748739600181
234,4.226699125766754,0.039173403731547235,48.959707260131836,7.072038888931274,80.145756149292,0.0
235,4.332674634456635,0.12464364320039745,49.805249977111814,6.793040335178375,83.95701541900635,0.0
236,4.431592738628387,0.18080280497670173,49.85470104217529,7.013430976867676,84.96482276916504,0.0
237,4.381923937797547,0.08769386797212061,49.52564125061035,6.442002296447754,82.90970802307129,0.0
238,4.31264683008194,-0.012185468343886893,50.02564096450806,4.729548370838165,79.58208351135254,0.0
239,4.301354885101318,-0.04422518843784926,49.36874256134033,4.518925487995148,77.22979412078857,0.0
240,4.3120746374130245,-0.03981930525042114,49.424908542633055,4.407204008102417,76.60267848968506,0.012931846641004075
241,4.331682813167572,-0.006195023462350938,49.91147747039795,4.664835202693939,77.17326431274414,0.0
242,4.46077606678009,0.12956668408587574,49.715506649017335,4.881563067436218,81.0305269241333,0.0
243,4.607875323295593,0.23505431413650507,49.87912111282348,5.301587414741516,86.23197231292724,0.0
244,4.555879390239715,0.1260232089087367,49.49694747924805,5.019535958766937,89.4504508972168,0.0
245,4.519981992244721,0.04568821992725132,49.98779010772705,4.744810700416565,88.85345096588135,0.0
246,4.539475762844086,0.023196160694351382,49.365690040588376,4.429792404174805,89.92851562500002,0.0
247,4.535355567932129,-0.012228529772619307,49.39499387741089,4.445055139064789,91.61779823303223,0.0
248,4.5452742099761965,-0.0005705674411728925,49.77838830947876,5.307692468166351,89.44310989379883,0.0
249,4.538636493682861,0.00220784230405115,49.58730154037475,5.561660528182984,85.33797073364258,0.0
250,4.52036337852478,-0.01562712753657246,49.81684999465942,4.902319896221161,80.83013114929199,0.0
251,4.515213453769684,-0.018462439440190735,49.66117191314697,4.937729120254517,78.76615562438965,0.0
252,4.529671621322632,0.00037917860972811986,49.67826623916626,4.956654465198517,79.6983377456665,0.0
253,4.597117531299591,0.06235917247831817,49.663614177703856,5.349816870689392,82.74663887023925,0.0
254,4.555307149887085,0.012420761000248592,50.10256414413452,6.416361510753632,85.43991775512696,0.0
255,4.47599720954895,-0.06387756625190369,49.62942590713501,6.5665446519851685,87.06381568908691,0.0
256,4.4298379778862,-0.0963908992707729,49.75824184417725,6.841269910335541,87.58092765808105,0.0
257,4.413930094242096,-0.09273865018039942,49.08058624267578,6.797924268245697,89.11107711791992,0.0
258,4.459326469898224,-0.021130400008405516,49.796092891693114,7.302808105945587,89.99806022644043,0.013291064649820317
259,4.500488293170929,0.04117084071040151,49.64896173477173,7.06715497970581,88.93630523681641,0.03502375185489652
260,4.605891609191895,0.1395899903029203,50.20451774597168,5.727106189727784,87.3537368774414,0.0
261,4.614894545078277,0.11327954726293679,49.65140466690063,5.15262508392334,87.78374786376953,0.0
262,4.518761217594147,-0.011405335683957641,49.596459007263185,5.1202687382698056,88.52822742462158,0.0
263,4.622028267383575,0.06835700349911346,48.81990222930908,5.014652192592621,92.26929664611816,0.0
264,4.772255599498749,0.17176237702369682,49.91697235107422,5.315628802776336,94.20037841796875,0.0
265,4.705267477035522,0.06466925276909018,49.849206161499026,5.137973308563232,91.1053783416748,0.0
266,4.619624924659729,-0.026704973183223006,49.716117000579835,4.461538672447205,85.38433876037598,0.0
267,4.5687353134155275,-0.08357657464221113,49.777167320251465,4.2637364864349365,80.32971725463867,0.0
268,4.529938638210297,-0.12204464171081775,49.43589735031128,4.1739928245544435,77.69392986297608,0.0
269,4.503158712387085,-0.10971065908670416,49.39438371658325,4.743589699268342,77.01231231689454,0.04597989916801452
270,4.475005340576172,-0.08564972579479209,50.19108667373657,5.249084210395813,78.7118616104126,0.034484925121068946
271,4.449941968917846,-0.07125114463269702,49.81929168701172,6.239316344261169,80.61934089660645,0.0
272,4.496902406215668,0.0007211723655928046,49.88888883590698,6.105006217956543,83.47180194854737,0.0
273,4.521660566329956,0.031612276006489956,48.9926739692688,6.255799746513366,86.70247459411621,0.0
274,4.534211254119873,0.04320474835112687,50.03113555908203,6.9835164785385135,88.32936573028564,0.0
275,4.576021540164948,0.07041346337646243,49.43528709411621,7.062270879745483,87.48414173126221,0.0
276,4.498847913742066,-0.023248738395341167,49.75396814346313,6.307081782817841,82.17082443237305,0.0
277,4.425717973709107,-0.09442918598651884,49.54700870513916,5.81440794467926,76.88960456848145,0.0
278,4.38489944934845,-0.11252628359943628,49.88156270980835,5.09829057455063,73.83213996887207,0.0
279,4.355563509464264,-0.1115428280085325,48.810744762420654,4.8376067876815805,73.69257068634033,0.0
280,4.3463697791099545,-0.07826589914038776,50.03479862213135,5.042735147476196,78.30905838012696,0.0
281,4.367198741436004,-0.019760625005437734,49.64957256317139,6.492063426971436,84.2634449005127,0.0
282,4.375782012939453,0.005415489565348195,49.63492069244385,6.448107540607452,86.61526851654052,0.0
283,4.346140933036804,-0.015952783490683898,49.71245450973511,6.304029178619385,87.01844081878662,0.0
284,4.310434234142304,-0.04309348883107303,49.52442007064819,5.724053764343262,86.55527801513672,0.0
285,4.320314621925354,-0.02534519719119997,49.8687424659729,5.521978104114533,87.40434246063232,0.0
286,4.391422748565674,0.0454828218789771,49.553724193573,5.999389517307282,87.93159828186035,0.0
287,4.390240144729614,0.03914601703872902,49.83272275924683,5.739926874637604,85.85472984313965,0.0
288,4.325540924072266,-0.02427509855551759,49.4609281539917,5.744810879230499,82.93729763031006,0.0
289,4.2786568880081175,-0.0657962145283818,49.17521362304687,5.455433464050293,81.07269744873047,0.0
290,4.245086467266082,-0.08957103826105592,50.338217449188235,5.137973070144653,80.22165355682372,0.0
291,4.233489513397217,-0.07767999246716498,49.37423686981201,6.308302736282348,78.48331909179687,0.0
292,4.220595455169677,-0.05634913211688396,49.440781593322754,6.105006217956543,77.3953628540039,0.0
293,4.216856813430786,-0.03136637319403231,49.88278369903564,6.184371113777161,76.89123764038087,0.0
294,4.28369243144989,0.046293721071560795,49.72161178588867,6.198412632942199,77.44531230926513,0.0
295,4.333017981052398,0.08441114556044331,49.78754577636719,6.448107540607452,79.30268688201905,0.0
296,4.305551302433014,0.04036234060768031,49.78937740325928,6.8345543384552006,84.04950866699218,0.007184359245002263
297,4.27232426404953,-0.0045667358921491355,49.56105041503906,7.579365015029907,87.21549701690674,0.010058102943003168
298,4.274689447879791,-0.01329396520741279,49.72954797744751,8.363858485221863,87.96067733764649,0.0
299,4.281594240665436,-0.0136105758370831,49.445055103302,8.278388023376465,85.29067840576172,0.0
300,4.251152050495148,-0.03454708531498905,49.57203922271729,8.009767770767212,79.72158756256104,0.0
301,4.208693206310272,-0.05843652794137594,49.709401798248294,7.525030314922333,76.95011920928955,0.08980448767542837
302,4.172605061531067,-0.07510568425059314,48.25030527114868,7.448107242584227,76.57945251464844,0.4562067985534668
303,4.1765343189239506,-0.05009477488165427,51.80463972091675,7.416361212730408,76.07634124755859,0.3430531453341245
304,4.398022389411926,0.1734485087916255,49.947497081756595,9.18498146533966,75.66249561309814,0.5476277701556682
305,4.694357132911682,0.4126243732869625,49.087912273406985,11.831501603126526,74.07985343933106,0.1885894257575273
306,4.9573122382164,0.5560848161578178,49.29365062713623,7.765567779541016,55.51404752731323,0.0
307,5.25109099149704,0.6678944036364556,50.13003711700439,6.549450492858886,58.391744232177736,0.0
308,5.510078740119934,0.6788611710071564,49.57997550964355,5.738705635070801,63.05833053588867,0.0
309,5.481200587749481,0.400296151265502,49.21367511749268,5.540903449058533,66.69156589508057,0.0
310,5.330286574363709,0.08090111090859861,49.78327236175537,5.106227207183838,74.72679138183594,0.0
311,5.257843315601349,-0.08359618429094548,49.184981441497804,5.197802209854126,79.95412406921386,0.0
312,5.218512547016144,-0.15035574492067094,49.83394403457642,5.372405529022217,83.91199359893798,0.0
313,5.17986843585968,-0.14925367571413511,49.882784366607666,6.120879006385803,85.82687110900879,0.0
314,5.181089150905609,-0.07885662936605509,49.587302112579344,6.715506553649902,84.99117965698242,0.0
315,5.3134632229804994,0.08581521307933139,50.07081813812256,7.039682555198669,83.96523609161378,0.0
316,5.341235077381134,0.10121557591482992,48.902930641174315,7.22832727432251,84.51647567749023,0.0
317,5.215002906322479,-0.03273398258024825,50.183760738372804,7.547008383274078,86.3344533920288,0.0
318,5.119518160820007,-0.12069076765328642,49.25824203491211,7.884004759788513,87.5025619506836,0.0
319,5.175977349281311,-0.05664136427803893,49.57875480651855,7.976190316677093,85.61208076477051,0.0
320,5.219809556007386,-0.007941836277313995,49.85653228759766,7.565323352813721,81.85133285522461,0.0
321,5.093844413757324,-0.09611730845645065,49.73748483657837,7.290598094463348,80.03075904846192,0.0
322,5.016174805164337,-0.12571472581475968,50.27106227874756,7.084248900413513,81.10780296325683,0.0
323,5.13546404838562,0.012656387616880238,49.117216205596925,7.116605532169342,84.0129301071167,0.0
324,5.178304421901703,0.04591963293205478,49.73015909194946,6.540903449058533,86.04710807800294,0.0
325,5.022011494636535,-0.08786364556290206,49.648351955413816,5.704517602920532,87.67099838256836,0.0
326,4.988708114624023,-0.08568268148228522,49.606227016448976,5.1715507984161375,90.14664554595947,0.0
327,5.096858108043671,0.021568568795919396,49.86507959365845,5.274725437164307,88.47995567321777,0.0
328,5.059282171726227,-0.021073445164074625,49.65567789077759,5.9511600732803345,84.65284423828125,0.0
329,5.029908180236816,-0.022017333586700213,49.6080584526062,5.3437118291854855,80.88955879211426,0.0
330,5.0448240518569945,0.006474587797129045,49.47008562088013,5.059829139709473,79.37030639648438,0.0
331,5.056268465518952,0.003886059927936001,49.656898975372314,5.368131959438324,82.5423484802246,0.0
332,5.04623556137085,-0.006906877236906391,49.18253946304321,5.7826619148254395,86.17770538330078,0.0
333,5.020294821262359,-0.02297802914108612,49.78632478713989,6.507936429977417,87.02597427368164,0.0
334,4.939954829216004,-0.0915685353800654,49.84859609603882,7.046397864818573,83.90547370910645,0.0
335,4.8696096539497375,-0.13547379020601508,49.90720357894897,6.98717942237854,81.44249210357665,0.0
336,4.827150797843933,-0.1360403666272759,49.85042753219604,7.239316284656525,81.95457916259765,0.0
337,4.920880746841431,-0.004626789324538547,49.030524826049806,7.258241689205169,85.6188591003418,0.0
338,5.025101494789124,0.10923652481287713,50.2619047164917,7.870574140548706,87.09447040557862,0.0
339,4.910809636116028,-0.004159061756217845,48.79853477478027,7.81074458360672,85.79708595275879,0.0
340,4.811548244953156,-0.09330840967595573,49.509157276153566,7.035408854484558,84.96192283630371,0.0
341,4.769852268695831,-0.12395665869116779,50.299756145477296,7.434676289558411,83.7011001586914,0.0
342,4.731017482280731,-0.14116040468215935,49.33577556610108,7.4090354442596436,85.38356990814209,0.0
343,4.772370076179504,-0.04956283469218757,49.56227083206177,7.427960896492005,87.2994327545166,0.0
344,4.905888557434082,0.11139494674280279,49.39011001586914,8.10500613451004,87.87364349365234,0.0
345,4.9396115183830265,0.12867492586374277,50.39010992050171,8.67582414150238,86.8948564529419,0.0
346,4.841113018989563,0.00891239663760642,49.70512819290161,7.692307472229004,83.97149391174317,0.0
347,4.744827103614807,-0.09480473091825836,49.538461685180664,7.600732386112213,82.01214408874512,0.0
348,4.694585990905762,-0.14070344753563396,49.37606830596924,7.492063283920288,82.57275619506837,0.0
349,4.660824954509735,-0.14196907393634317,49.51159954071045,8.039072227478027,85.02886352539062,0.0
350,4.640453779697419,-0.10502224322408431,50.10195350646973,8.31501817703247,86.35022811889648,0.0
351,4.620235276222229,-0.0725944733247161,49.390720462799074,7.766788673400879,85.37995777130126,0.0
352,4.586283481121063,-0.06942108944058419,49.990842723846434,7.89438316822052,83.26281700134277,0.0
353,4.557405304908753,-0.0690781395882368,49.219780158996585,8.339438247680665,82.14705963134766,0.0
354,4.531807935237884,-0.06801150254905222,49.59035415649414,8.766788482666016,81.8233793258667,0.0
355,4.510063469409943,-0.06395626217126846,49.367521572113034,8.97924268245697,79.49136123657226,0.0
356,4.487556123733521,-0.059778529219329336,50.22527456283569,8.753968000411987,76.85231971740723,0.0
357,4.480727505683899,-0.042219061241485153,49.36446886062622,9.064713096618652,76.03635101318359,0.0
358,4.555307137966156,0.04412673264159818,49.75885238647461,8.749695110321046,77.73776473999024,0.0
359,4.6075319170951845,0.08669051891192794,49.55860795974731,8.47924313545227,80.37117366790771,0.0
360,4.555001997947693,0.021428411240049128,49.31562871932984,8.351648330688477,83.2503890991211,0.0
361,4.508728289604187,-0.030730285099707516,50.20512809753418,7.821123111248016,85.85257835388184,0.0
362,4.48038420677185,-0.06176718063652513,49.37179498672485,7.769230544567108,86.73380031585694,0.0
363,4.453413486480713,-0.0796907106414437,49.86630058288574,7.59340637922287,86.30722885131836,0.0
364,4.441434860229492,-0.06267291475087401,49.08180732727051,7.258852064609528,83.63300800323486,0.07741146944463247
365,4.463942348957062,-0.012558643706142894,49.42673997879028,7.194139003753662,81.95867462158203,0.02298994958400724
366,4.538369405269623,0.06734159449115387,50.144077968597415,7.217948544025421,79.35830345153809,0.0
367,4.545426833629608,0.06317327730357639,49.45116014480591,6.181318712234497,77.84132308959961,0.0
368,4.5002593994140625,0.0068289621078292725,49.910867023468015,5.655677700042725,78.52636108398437,0.0
369,4.475844550132751,-0.025442710192874023,49.56410255432129,4.699023187160492,80.16260986328125,0.0
370,4.52990049123764,0.020071033685235294,49.27167272567749,4.758241713047028,81.44051933288574,0.0
371,4.716139721870422,0.1816135514527559,49.464591121673585,5.34798526763916,82.51491241455078,0.0
372,4.774658942222596,0.19862577728927133,49.96459121704102,5.448718059062958,80.0791410446167,0.0
373,4.852023386955262,0.21963642612099643,49.85164861679077,5.532356643676758,74.84299278259277,0.0
374,4.925850800105503,0.22459539664643144,50.03226906912668,5.34798526763916,72.68321990966797,0.0
