sec,SCL,SCR,BVP,PVA,HR,MOTION
0,0.7778405115008354,0.0010000000474974,62.43650846481323,0.0,30.0,0.2992285527288914
1,0.9490112036466598,0.0010000000474974,52.77411470413208,0.0,30.0,0.035742186568677385
2,0.9328745454549789,0.0010000000474974,48.68864469528198,0.0,30.0,0.005927096307277673
3,0.9377956464886665,0.0010000000474974,50.808913230895996,0.0,30.0,0.1169254450127482
4,0.9637745320796967,0.10421886727272063,49.850427341461184,1.5848596215248107,32.088346290588376,0.03286844305694101
5,0.9875789612531662,0.04506809664890164,48.52258815765381,4.932845115661621,42.38261318206787,0.03197039924561975
6,0.9842219278216362,0.02655504057183856,48.587912273406985,4.333943819999695,52.39648246765137,0.02011620625853537
7,0.9706030458211898,0.005389960492402651,51.953602123260495,10.12454215288162,57.93099937438965,0.04597989954054352
8,0.9637363895773887,-0.007992017018841523,50.50976819992066,11.355311393737791,59.055118560791016,0.0071843594312667805
9,0.9727774947881699,-0.0023803246731404102,49.82173366546631,11.355311393737791,59.055118560791016,0.012931846641004075
10,0.9841837868094444,0.008645587565842962,48.94444456100464,11.355311393737791,59.055118560791016,0.0
11,0.9773552596569062,0.0030048844240809325,50.239926719665526,11.355311393737791,59.055118560791016,0.0
12,0.9710226863622665,-0.0025803714990615275,49.675213718414305,10.409035134315491,60.63974380493164,0.018679334037005883
13,0.9741508111357687,-0.0006566011486938507,49.81990222930908,5.843711900711059,59.22575073242187,0.06968828365206717
14,0.9754859969019888,-0.0010284015873594232,49.76129417419433,4.004884243011475,58.42258834838867,0.0
15,0.9700689733028411,-0.005073587386868848,49.65445690155029,4.004884243011475,58.42258834838867,0.0
16,0.9635837957262993,-0.008529532013926597,49.08547010421753,4.004884243011475,58.42258834838867,0.0
17,0.9597308158874513,-0.01002848041243845,49.901709365844724,4.44749698638916,57.514521312713626,0.02298994958400724
18,0.9577852889895441,-0.009256307827308723,50.09462757110596,4.598901224136354,56.202200317382825,0.0
19,0.9535126820206642,-0.009597233543172417,50.436508083343504,4.590964794158936,55.73618316650392,0.007184359245002263
20,0.947408966720104,-0.011156191211193737,48.61843738555908,4.590964794158936,55.73618316650392,0.004310615547001358
21,0.9461882159113882,-0.008332636347040475,50.00549430847168,4.459096670150758,54.20696096420288,0.0
22,0.9456541523337363,-0.005805132852401527,50.08608083724975,4.004884243011475,48.939640045166016,0.0
23,0.9406567558646202,-0.007763487147167273,49.2936508178711,4.239316463470459,49.96464309692383,0.038615930266678304
24,0.9327600955963135,-0.011824560188688275,49.56776571273804,5.456044030189515,52.074202919006346,0.0026941346004605276
25,0.928029726445675,-0.012485555582679768,49.95482320785523,7.125762939453125,53.4499626159668,0.0
26,0.927610093355179,-0.009191126760560974,49.539072036743164,6.617826461791992,54.20054244995117,0.0
27,0.9250160023570061,-0.007824108807835687,49.914529991149905,6.617826461791992,54.20054244995117,0.0
28,0.9216208443045616,-0.007158067473210353,50.74297914505005,6.080585956573486,53.93061923980713,0.0
29,0.9175771415233612,-0.007827216375153467,47.93162393569946,4.6617826461792,53.06961517333984,0.0
30,0.9133808359503744,-0.009146513720042961,50.000611019134524,6.398046493530273,52.60850524902344,0.0
31,0.9075823232531548,-0.01153087220154699,51.151403999328615,6.398046493530273,51.59949626922609,0.0
32,0.9015167832374573,-0.013147385371848896,48.69047622680664,6.398046493530273,51.54639053344728,0.0
33,0.8978163927793503,-0.012074136314913587,48.827838230133054,5.064102602005005,51.69996280670166,0.0
34,0.8937345564365387,-0.011368527566082727,49.53296737670898,4.202686190605164,70.75312938690186,0.0
35,0.8934293687343597,-0.007226323208305932,50.67277164459229,4.725274682044983,85.58958377838135,0.007184359245002263
36,0.892933438718319,-0.004346427827840625,49.6208794593811,5.9859584927558895,95.39144897460938,0.0
37,0.8888134375214577,-0.005793961125891605,49.79914541244507,4.66178286075592,98.69051208496094,0.0
38,0.8841593727469444,-0.007864385913126125,49.7936508178711,4.449939155578614,96.5035551071167,0.0
39,0.8768349260091781,-0.012183214374817859,48.90293016433716,4.463370037078858,96.49509925842285,0.0
40,0.8709982603788375,-0.01411163199227298,50.53418807983398,5.172161197662353,96.18545532226562,0.0
41,0.8650852993130684,-0.014920709771104119,50.95177068710327,5.02075719833374,96.63008861541746,0.0
42,0.856540122628212,-0.01745464997366066,48.62637348175049,4.688644886016846,96.69621276855467,0.0
43,0.847766050696373,-0.01926744454540307,48.62454233169556,4.688644886016846,96.69621276855467,0.00574748739600181
44,0.8475753083825112,-0.012620614457409784,49.805250358581546,4.688644886016846,96.74495029449463,0.0
45,0.8577227145433426,0.0017569276398717074,49.349206352233885,4.688644886016846,96.7741928100586,0.07633381597697733
46,0.8629871338605881,0.00840172249590973,50.44627561569214,4.24908447265625,96.30893325805664,0.01580559015274047
47,0.8595538228750229,0.004779493097157633,49.7692307472229,4.087301814556122,95.65839748382568,0.0
48,0.8531449422240257,-0.002507676172535835,49.83638563156128,3.492063522338867,76.33587646484375,0.03053352683782574
49,0.847041231393814,-0.009331456490326625,50.026251792907715,3.492063522338867,76.33587646484375,0.0
50,0.8416623324155807,-0.013036793377250371,49.25824184417725,3.492063522338867,76.33587646484375,0.0
51,0.8359019741415977,-0.014284183108247755,49.469474983215335,3.492063522338867,76.33587646484375,0.0
52,0.8297219723463058,-0.01462751640938217,49.683760738372804,3.492063522338867,76.33587646484375,0.0
53,0.8225882813334465,-0.01575632905587547,49.80097675323486,3.3821734189987183,69.8660930633545,0.0
54,0.8165990203619004,-0.015610648435540437,49.49755802154541,3.0036630630493164,47.58128356933594,0.0
55,0.8096560597419739,-0.016399775585159607,50.15018310546875,3.116605669260025,40.6056324005127,0.0
56,0.8014542073011398,-0.017933537485077932,50.63553113937378,3.522588551044464,42.14138660430908,0.0
57,0.7947019815444947,-0.01774882711470123,49.14407835006714,3.813186824321747,49.30393829345703,0.0
58,0.7895519882440567,-0.01610139312688257,50.10500621795654,4.0311355769634245,69.58296632766724,0.0
59,0.783562733232975,-0.015573147102259067,48.94810771942139,4.356532573699951,85.69446182250977,0.0
60,0.7764290273189545,-0.016009516292251606,49.84065952301025,5.196581125259399,93.53089141845703,0.0
61,0.7699820056557656,-0.015968464477918998,49.848596286773684,4.900488495826721,94.84757137298585,0.0
62,0.7625049605965615,-0.017106209089979476,49.364469051361084,4.851037931442261,95.99723930358886,0.0
63,0.7558290436863899,-0.017219393653795077,49.691086769104004,4.919413876533509,97.42703323364256,0.0
64,0.7469023630023003,-0.019178438838571264,49.48046426773071,4.801587402820587,99.0128734588623,0.0
65,0.7382045850157738,-0.0202807914000004,49.72283296585083,4.263736248016357,100.16736297607422,0.0
66,0.7362208917737008,-0.015021646046079643,49.45116004943848,4.159340882301331,99.7467113494873,0.0
67,0.7329020082950592,-0.012029203609563364,49.99267387390137,4.02197807431221,98.06410160064698,0.0
68,0.7291634857654572,-0.010189185501076227,49.71550674438477,3.741147756576538,97.19269866943358,0.0
69,0.7221823871135712,-0.011962677468545683,49.517704772949216,3.752136766910553,97.50391445159912,0.0
70,0.7166127428412438,-0.012979208095930467,49.92124557495117,4.076923257112503,98.29929084777831,0.0
71,0.7106616497039795,-0.014269649400375731,49.83211221694946,4.528083097934723,98.60594387054444,0.0
72,0.7045960873365402,-0.014926697639748401,49.517704486846924,3.882173389196396,99.16542587280273,0.0
73,0.7004379406571388,-0.013327921205200193,50.09218559265137,4.173382234573364,100.90510025024415,0.0
74,0.6941816374659538,-0.013886701571755061,49.7930401802063,4.634920835494996,101.88775596618653,0.0
75,0.6885738611221314,-0.013919388595968415,49.04029264450073,4.335775554180146,99.52970390319824,0.0
76,0.6844157293438912,-0.01273494604974979,49.770451354980466,4.042735278606415,98.03858604431153,0.0
77,0.6789986893534661,-0.012894606683403207,50.06288166046143,4.075091671943665,97.62523040771484,0.0
78,0.6755272090435028,-0.011286908364854716,50.02564058303833,4.126984119415283,97.40259552001952,0.0
79,0.6700338780879974,-0.011848199111409444,49.06227102279663,4.048840045928955,97.46605072021484,0.0
80,0.6662953495979309,-0.010904459119774362,49.968864345550536,4.147130787372589,99.06824684143065,0.0
81,0.6643879652023316,-0.008603505895007366,49.32539672851563,4.4194140315055845,101.17916812896729,0.0
82,0.6609164759516716,-0.008333322056569111,50.855310916900635,4.870574021339417,100.58407592773436,0.0
83,0.6519516572356224,-0.01310687835793938,49.03968257904053,4.932845115661621,100.4184112548828,0.0
84,0.6456953570246696,-0.01447727798949923,49.58058605194092,4.896214962005615,100.50258255004881,0.0
85,0.6422620356082916,-0.01316729581449177,49.51159934997558,4.789377379417419,99.9507007598877,0.0
86,0.6386761054396629,-0.01180229391902681,49.478632640838626,4.942613053321838,98.92011966705323,0.0
87,0.6338312849402428,-0.011323795141652177,49.3852258682251,4.932845115661621,96.0567714691162,0.0
88,0.6278420358896255,-0.01219571877736594,50.1642243385315,4.7442002415657045,94.98430404663087,0.0
89,0.6242179736495018,-0.0112802912248298,49.53724069595337,4.118437111377716,95.70938930511474,0.0
90,0.6197164729237556,-0.011427950765937523,49.48717927932739,4.468864440917969,99.72707462310791,0.0
91,0.6151005625724792,-0.011435343557968686,50.14529905319214,4.721611678600311,100.48858890533447,0.0
92,0.6086535304784775,-0.012960689514875359,49.670940494537355,4.709401822090149,99.3605281829834,0.0
93,0.6031220585107804,-0.013440230744890818,49.07875471115112,5.030525207519531,99.17355346679688,0.0
94,0.6012527957558632,-0.010547661455348082,50.29853506088257,4.906593549251556,99.05946655273438,0.0
95,0.5966749995946884,-0.010545459389686528,49.629426097869874,4.434676408767701,97.73156871795655,0.0
96,0.5917920410633087,-0.010777211980894149,49.53846130371094,4.35103806257248,96.17346534729003,0.0
97,0.5875576168298722,-0.010576959839090658,49.84065923690796,4.189255285263061,96.86124229431152,0.0
98,0.5840861067175865,-0.010094627109356161,49.64468879699707,4.44444465637207,97.69813499450683,0.0
99,0.5803094655275345,-0.009909614338539489,49.53418807983398,4.678876733779907,98.7355728149414,0.0
100,0.5753120616078377,-0.010647091385908376,49.979853534698485,4.858974361419678,99.1613208770752,0.0
101,0.5721076086163521,-0.009743115352466646,49.69597082138061,5.557997608184815,99.3048812866211,0.0
102,0.56981870085001,-0.008275454584509075,49.4017092704773,5.191697120666504,98.55478973388672,0.0
103,0.5656987234950066,-0.008877917798235956,49.823565578460695,5.288766765594483,98.8229320526123,0.0
104,0.5613879919052124,-0.00936614107340568,49.81868143081665,5.949328434467316,99.1757303237915,0.0
105,0.5580309450626373,-0.00907942533958697,49.41819305419922,6.144078159332276,98.55478973388672,0.0
106,0.5561998188495636,-0.007615561468992329,50.024420166015624,6.006715440750122,98.81681022644042,0.0
107,0.5550172328948975,-0.005737488588783835,49.70329704284668,6.6178265571594235,99.19616680145263,0.0
108,0.5537583768367768,-0.004242859838996032,49.319902420043945,6.7643468379974365,99.3377456665039,0.0
109,0.5510879844427109,-0.004751772107556412,49.62942600250244,6.254578793048859,99.3377456665039,0.0
110,0.5476546481251716,-0.006158595904707868,50.01465196609497,6.427960801124573,99.3377456665039,0.0
111,0.5448698446154594,-0.00678300916915755,49.42673997879028,6.4468865394592285,99.3377456665039,0.0
112,0.5435346484184265,-0.005805590644013092,49.95054950714111,6.509157395362854,99.51986560821533,0.0
113,0.5404828041791916,-0.006439643376506822,49.38339433670044,6.805860805511474,100.14704761505126,0.0
114,0.536172054708004,-0.007898270909208763,49.36141633987427,7.169719123840332,98.12068367004393,0.0
115,0.5340738892555237,-0.007052216609008568,50.46031723022461,6.47863233089447,95.63630924224853,0.0
116,0.5345316708087922,-0.00417973173316563,49.24053745269775,5.719169616699219,94.75701599121093,0.0
117,0.5341120377182961,-0.00270237035874739,51.084859657287595,6.531135606765747,95.0646686553955,0.0
118,0.5328913331031799,-0.00217122067260784,48.631257724761966,6.593406677246094,95.08716583251952,0.0
119,0.5384990930557251,0.004146072977164252,48.84188022613525,6.579975533485412,95.2117835998535,0.0
120,0.5513931721448898,0.014951696153730118,49.29487190246582,6.410256266593933,95.36302967071533,0.0
121,0.5542924195528031,0.013862768537364864,50.96214904785156,6.228327131271362,94.28508186340332,0.0
122,0.5499816790223122,0.006064668006729295,49.40598278045654,7.578754734992981,93.46977577209472,0.0
123,0.5481505528092384,0.0011454534642097878,50.22100095748901,6.8858363032341,94.84584007263183,0.0
124,0.5468916893005371,-0.0026727086195023225,49.218558883666994,7.179487228393555,95.32515621185301,0.0
125,0.5447553992271423,-0.004981568292714605,49.75213680267334,7.163613986968994,94.11318645477294,0.0
126,0.542657233774662,-0.0049674813519231574,49.73565330505371,6.692307555675507,93.97782974243165,0.0
127,0.5402920618653297,-0.00526944703888144,49.365079402923584,6.7210011839866635,94.22666950225829,0.0
128,0.5373928055167199,-0.00611912102904166,50.597069549560544,6.576312565803528,94.62895240783692,0.0
129,0.5360957577824592,-0.00521508841775353,49.19047622680664,6.757631254196167,96.3118101119995,0.0
130,0.5328913331031799,-0.006135962659027374,49.139194107055665,6.568986654281616,100.20369567871094,0.0
131,0.531441704928875,-0.00530658167554061,49.6147741317749,6.822954893112183,101.21089115142823,0.0
132,0.5293053910136223,-0.005197128851432311,49.74542102813721,6.170940244197846,99.45043697357178,0.0
133,0.5273598432540894,-0.005046046350616918,49.42673978805542,5.982905864715576,98.51434535980225,0.0
134,0.5241935566067696,-0.006047946424223434,50.3516487121582,6.5714284658432005,95.09759769439697,0.0
135,0.5228583604097367,-0.005165713594760693,49.330891132354736,6.324786281585693,92.35289611816405,0.0
136,0.5195013254880905,-0.006379978545010037,49.10866928100586,6.4664225578308105,95.623547744751,0.0
137,0.5166783690452575,-0.006711756030563215,50.31013412475586,6.231379652023316,97.27592220306397,0.0
138,0.513855405151844,-0.006935276254080187,49.85103797912598,6.241147744655609,98.60594387054444,0.0
139,0.5114520892500878,-0.006701001431792917,49.57631244659424,6.783272409439087,99.15110778808594,0.0
140,0.5089342907071114,-0.006588112097233483,49.6691089630127,6.79365097284317,98.74805965423585,0.0
141,0.5068361252546311,-0.005949504731688598,49.39438323974609,6.860195291042328,97.53833637237548,0.0
142,0.5051957845687867,-0.00524217170896003,49.65262498855591,6.615384459495544,94.8907627105713,0.0
143,0.501686142385006,-0.00637525749625633,50.0543345451355,5.522588431835175,96.1214069366455,0.0
144,0.4998550288379192,-0.005797117261681655,49.62515268325806,6.0293039083480835,98.03921508789062,0.0
145,0.49878688901662827,-0.004693604388739855,49.77655649185181,5.2649571895599365,98.03921508789062,0.0
146,0.49562058970332146,-0.005806143360678048,49.50427331924438,5.511599421501161,99.07998790740967,0.0
147,0.48986023366451265,-0.008830634865444107,49.446886253356936,5.943223464488984,100.19230861663819,0.0
148,0.48833429962396613,-0.007448134757578327,50.26373634338379,6.572039079666138,98.83692779541016,0.0
149,0.48745688498020173,-0.00583873005816708,49.79914512634277,6.980463802814484,97.51625499725341,0.0
150,0.48631244003772733,-0.004454394039930733,49.034798049926756,6.5921855688095095,98.05505332946777,0.0
151,0.48333689048886297,-0.004946030711289453,50.059218406677246,7.084249138832092,97.65413646697998,0.0
152,0.479598382115364,-0.006433686008676838,49.68925552368164,5.968254041671753,99.03360652923584,0.0
153,0.4774620831012726,-0.00649624299257989,49.41758270263672,4.952381038665772,100.9268585205078,0.0
154,0.4762032054364681,-0.005511533690150783,49.36263761520386,6.042735159397125,102.02092685699463,0.0
155,0.4755928322672844,-0.0039776836696546,49.73443212509155,5.7881562352180485,101.1914192199707,0.0
156,0.4741813391447067,-0.003300720883998968,49.45482320785523,5.931013369560242,100.98193912506103,0.0
157,0.47215948775410643,-0.00371930946712377,49.57753400802612,7.434676623344421,98.67422142028809,0.0
158,0.47109134346246717,-0.0033551257743965326,50.25702075958252,5.866910755634308,97.98472480773924,0.0
159,0.46941282227635384,-0.0037838794698472553,49.4157509803772,5.507936573028564,99.39829254150392,0.0
160,0.4670857846736908,-0.00454107836703765,50.25641002655029,6.49450558423996,100.28639221191405,0.0
161,0.46929837837815286,-0.0009361201487422174,49.95604400634765,7.0329670906066895,100.4184112548828,0.021193859912455062
162,0.47059541419148443,0.0009445643536309551,47.904761981964114,7.0329670906066895,100.4184112548828,0.0847754385322332
163,0.46784875392913816,-0.00138338746473886,50.42124557495117,7.7246642231941225,100.7513416290283,0.0323296161368489
164,0.4671239383518696,-0.0014360897264850498,48.87423696517944,5.396825313568115,98.36065673828124,0.0
165,0.47200689241290095,0.0032094448688439496,49.92551879882812,5.396825313568115,98.36065673828124,0.0
166,0.48001801073551176,0.009580788260791402,49.893772983551024,5.396825313568115,97.43107719421386,0.0
167,0.4818109661340714,0.009086015238426568,49.675213527679446,3.919413924217224,96.58074569702147,0.0
168,0.4785302296280861,0.00362981142534404,50.095238018035886,2.442002534866333,96.23095703125,0.0
169,0.47704245522618294,2.7241482166562504e-05,49.73321123123169,2.442002534866333,96.23095703125,0.0
170,0.47578357458114623,-0.0026454386010299875,50.106227207183835,2.471306562423706,86.32702026367187,0.0014368718490004526
171,0.47376170605421064,-0.00438556451699692,49.18314981460571,2.5152626037597656,71.47111511230469,0.010058102943003168
172,0.47166356742382043,-0.004646290623350027,49.007936573028566,2.857142925262451,70.04546432495117,0.0
173,0.4707098588347435,-0.0038337943668011096,49.47252721786499,4.468864440917969,63.32453918457031,0.0
174,0.4688406020402908,-0.0041419317480176155,50.54761915206909,4.051282262802124,60.251573944091795,0.0
175,0.46548356786370276,-0.0056749956798739275,49.292429733276364,3.5470086336135864,56.62491798400879,0.0
176,0.46224096715450286,-0.006693264562636569,49.62393159866333,3.404151439666748,54.20028619766235,0.015805590339004978
177,0.45922727361321447,-0.007376541371922896,49.28021974563599,4.273504257202148,52.81690216064453,0.0
178,0.4568239361047744,-0.007007683871779548,50.229548168182376,4.449328422546387,60.71448593139648,0.0
179,0.46399578675627706,0.0021327322476281376,49.846153831481935,4.256410312652588,84.79034767150878,0.0
180,0.46891690120100976,0.007079641276504785,49.592796325683594,4.2148964405059814,97.96898612976074,0.0
181,0.46903134509921074,0.006111437792424063,49.51953601837158,4.5909647941589355,101.93977508544921,0.0
182,0.46521653011441233,0.0010148844827199326,49.614163875579834,4.582417678833008,102.71820755004883,0.0
183,0.4631946712732315,-0.002253653755178625,50.21794891357422,4.356532335281372,103.02475032806396,0.0
184,0.46388134360313404,-0.0023192033753729802,49.46947479248047,4.363858342170715,104.32936878204346,0.0
185,0.4624698534607887,-0.003004447836428825,49.53846130371094,4.527472496032715,107.33767051696778,0.0
186,0.45838800966739657,-0.005400377075420645,49.4597071647644,4.813186895847321,108.40399322509765,0.0
187,0.4556794948875903,-0.0059724797843954906,49.14285717010498,4.612942576408386,106.44399833679199,0.0
188,0.4534669131040573,-0.006374351878184773,49.77777757644653,4.731990396976471,104.39458541870117,0.0
189,0.449842831492424,-0.007602985249832226,50.2142858505249,4.976801156997681,103.15675716400146,0.0
190,0.44568468630313873,-0.008648518985137292,49.660561847686765,5.006105184555054,101.19514102935791,0.0
191,0.44259468019008635,-0.008361428335774638,49.532356357574464,4.935897481441498,100.66692314147949,0.0
192,0.443090608716011,-0.0050195539108244145,49.64835138320923,5.4078145027160645,102.01009254455568,0.0
193,0.4449598670005798,-0.0010978068672556675,49.86752147674561,5.466422414779663,103.01348037719727,0.0
194,0.44351024329662325,-0.0010729592471761375,49.41575107574463,5.500610637664795,104.26915855407715,0.0
195,0.442823576182127,-0.000869348674132179,49.3290599822998,4.645299220085144,106.74392337799073,0.0
196,0.43870357275009153,-0.004391897859750268,49.62637348175049,4.581196570396424,106.73332557678222,0.0
197,0.4370632000267506,-0.0050647906726225675,50.23260078430176,4.981074571609497,105.85996780395507,0.0
198,0.4389324575662613,-0.0018538496442487974,49.3223443031311,5.3748472929000854,101.44238719940185,0.0
199,0.4410306170582771,0.0010957139689707724,49.30525074005127,4.146520137786865,99.55400085449219,0.0
200,0.4416028380393982,0.00199836038227654,50.43528699874878,4.465201437473297,100.97265644073487,0.0
201,0.43988616913557044,0.00035725881839425156,49.92735052108765,4.813186931610107,102.45037307739258,0.0
202,0.4430143140256405,0.0027484405291033475,49.501831436157225,4.655677711963653,104.28345813751218,0.0
203,0.4474394962191582,0.005720223020762152,49.40598306655884,5.005494570732116,107.15797672271728,0.0
204,0.4548020876944065,0.010835412913002026,49.24725255966187,4.520756995677948,107.7586658477783,0.0
205,0.4543061651289463,0.007569293491542288,49.88827848434448,4.34554340839386,107.33578987121582,0.0
206,0.44652393981814387,-0.0021373557367041825,49.50488405227661,3.879121059179306,108.31825466156006,0.0
207,0.44148839488625524,-0.007626849634107147,50.11233253479004,3.7051282227039337,108.0399948120117,0.0
208,0.44251838624477385,-0.0059674332151189,49.79059829711914,3.721611738204956,107.50041103363037,0.0
209,0.44328135475516317,-0.0036538811400532297,48.9835165977478,3.931623935699463,105.62059230804444,0.0
210,0.4400387629866599,-0.0040866758616175,49.714896297454835,4.28327248096466,105.3976547241211,0.0
211,0.43820763677358626,-0.003623170862556385,50.28205165863037,4.326007544994354,104.44267330169677,0.0
212,0.43641468361020086,-0.004194512637332042,49.617826557159425,4.1648353934288025,103.74382781982422,0.0
213,0.43572801649570464,-0.003698986914241635,49.37179498672485,4.24908447265625,103.0420539855957,0.0
214,0.4343165397644043,-0.0035455295292194425,50.057387351989746,4.890110075473785,102.85032081604004,0.0
215,0.42962431684136393,-0.00630678901216009,49.58302822113037,4.909645915031433,102.77330570220947,0.0
216,0.4263817295432091,-0.007330857345368667,49.59218578338623,4.804029262065887,102.75118427276611,0.0
217,0.4246269054710864,-0.006704220385290632,50.056776714324954,4.9047619819641115,103.12396392822265,0.0
218,0.42268136143684376,-0.00618002044502641,50.46459064483643,5.34798526763916,103.34583396911623,0.0
219,0.4224143221974372,-0.003880131762707568,48.97252759933472,5.387057304382324,103.52067413330079,0.0
220,0.4211554229259491,-0.0030958064948208124,48.780830192565915,5.514041423797607,102.6836151123047,0.0
221,0.42508469000458715,0.001919196090602775,49.132478618621825,5.870573925971985,98.9290641784668,0.0
222,0.43416394367814065,0.01014577411115165,50.0689866065979,6.432234287261963,92.21632385253905,0.0
223,0.4391613483428955,0.012366805714555047,50.335775470733644,6.373626232147217,91.04704284667967,0.0
224,0.4398098722100257,0.00961080319248136,50.117826557159425,5.931623816490173,91.92144775390625,0.0
225,0.4391613483428955,0.00546983310487117,49.5305251121521,4.970085561275482,97.62629489898681,0.0
226,0.43813133984804153,0.0011886126304943537,49.072649765014646,5.489621639251709,99.92420997619628,0.0
227,0.4379405975341797,-0.0006671542218099999,50.06105012893677,5.721611857414246,98.37285194396974,0.0
228,0.4379405975341797,-0.0008139292403938625,49.729548358917235,5.352869510650635,95.09949645996093,0.0
229,0.4379405975341797,-0.0004580724795232075,50.40293035507202,5.293040454387665,94.61564273834229,0.0
230,0.4379405975341797,-0.00019286019469287992,50.24236869812012,5.319291841983795,96.33300437927247,0.0
231,0.44053469076752655,0.0023505520626712997,48.70085458755493,5.435897588729858,99.63807315826416,0.0
232,0.4428235709667206,0.0038766744779422427,48.43833923339844,5.506715655326843,103.24631328582764,0.0
233,0.44682912454009055,0.0065821429016068075,49.978021907806394,6.077533626556397,103.23257102966309,0.0
234,0.4499191254377365,0.00746852031443263,50.47619028091431,5.746031665802002,101.61003494262695,0.0
235,0.44587542340159414,0.0014012122075655075,49.43711814880371,5.416361570358276,101.36484127044677,0.0
236,0.44263282865285875,-0.0028384717443258926,49.45177040100098,5.942613065242767,101.89572200775146,0.0
237,0.44274727404117586,-0.0028747977397869324,49.860195541381835,5.970085394382477,102.69050788879395,0.0
238,0.4449217192828655,-0.0004923606509691875,49.41086645126343,5.491453075408936,103.34234313964843,0.0
239,0.45949430838227273,0.013550167111679858,50.056165885925296,5.112332284450531,105.22079601287842,0.0
240,0.46765801310539246,0.01833750156220044,50.1617826461792,4.534798741340638,104.40951652526856,0.0
241,0.46349985897541046,0.009863289899658349,49.220390224456786,4.759462809562683,102.059716796875,0.0
242,0.4596087530255318,0.0021643894862790874,49.3461537361145,4.793650817871094,101.8778419494629,0.0
243,0.4550309769809246,-0.005203020197222895,49.402930450439456,5.478632497787475,100.07111396789551,0.0
244,0.44942320287227633,-0.010986452060751576,50.60378522872925,5.044566524028779,97.52984237670898,0.0
245,0.4451506108045578,-0.011664691008627364,49.65750904083252,5.377899932861328,97.00080699920655,0.0
246,0.44263282865285875,-0.009773954679258127,49.33943853378296,5.714285612106323,98.73698425292967,0.0
247,0.4425183832645416,-0.006070614710915782,50.009157371521,5.726495695114136,99.49107971191407,0.0
248,0.4389706127345562,-0.006405683525372248,49.220390701293944,5.839438438415527,100.14047908782959,0.0
249,0.431722466647625,-0.010299802408553604,49.33150186538696,6.112331986427307,100.05898818969726,0.0
250,0.4287850558757782,-0.009704803535714696,50.392551803588866,6.510378360748291,100.09424495697021,0.0
251,0.42756432890892027,-0.007850521255750158,49.74297943115234,6.417582273483276,100.34275913238525,0.0
252,0.42508468478918066,-0.007123639865312682,49.68192911148071,6.268620133399963,101.45039405822754,0.0
253,0.4221854291856289,-0.006506289495155163,49.05433435440064,6.666666507720947,101.90651893615723,0.0
254,0.4193624697625637,-0.006387754005845593,50.051892566680905,6.649572491645813,102.52259006500245,0.0
255,0.4181417241692542,-0.0054052394814788855,49.59340648651123,6.42490828037262,104.05965690612793,0.0
256,0.41859950572252275,-0.0029750777874141474,49.51343126296997,6.260683643817901,104.65505294799807,0.0
257,0.4196295142173767,-0.00047059797042261115,49.633699607849124,5.412087953090667,104.8515869140625,0.0
258,0.41962951198220255,0.0003197687366991479,49.62271070480347,4.775335729122162,102.38249015808105,0.0
259,0.41776024624705305,-0.0011616694493567874,50.01037893295288,5.619658207893371,100.16848106384276,0.0
260,0.41772210374474517,-0.0009442272275918826,48.91453008651733,5.225885391235352,99.09165954589844,0.0
261,0.4205069117248058,0.0016334971878677023,50.07753353118896,5.225885391235352,99.76445198059082,0.0
262,0.4184850603342056,-0.0005007969491998526,49.9536018371582,5.15873019695282,100.84343128204345,0.0
263,0.41898098662495614,0.0002670627596671825,50.16361408233642,4.938339447975158,102.18273296356202,0.0
264,0.4221472769975662,0.0030771330872084376,50.20329637527466,5.500000047683716,103.15634117126464,0.0
265,0.4277169153094292,0.007142690732143772,48.67948703765869,6.349206447601318,104.8034896850586,0.0
266,0.4309976533055305,0.008350958232767835,49.76556758880615,7.084249138832092,105.09409980773925,0.0
267,0.432523575425148,0.007560814055614128,48.796092891693114,8.742368698120117,104.21743316650391,0.0
268,0.4364909760653973,0.008231771411374166,50.20268621444702,8.840048789978027,103.80622863769534,0.0
269,0.4360332041978836,0.0045427692763041275,50.14713068008423,6.739316093921661,102.06185207366943,0.0
270,0.4364146888256073,0.0026913844485533752,49.74786319732666,6.402319931983948,101.00043468475342,0.0
271,0.4349650524556637,1.9773382155108172e-05,49.46031723022461,7.179487228393555,98.57301712036134,0.0
272,0.433477284759283,-0.0020124061287787676,49.7063491821289,6.7954823017120365,98.03683204650878,0.0
273,0.4359187573194504,0.00048991995863617,49.91880350112915,6.965811789035797,98.91849365234376,0.0
274,0.43958098143339147,0.003925442072795654,49.68376083374024,7.504273295402527,99.21661987304688,0.0
275,0.4438154257833958,0.007030191016383422,49.29975595474243,7.284493231773377,98.6219093322754,0.0
276,0.4438535772264004,0.00539786843291944,49.499999809265134,6.822954678535462,98.23591136932373,0.0
277,0.4404202476143836,0.00036490906786638,49.17643480300903,7.2765567064285275,97.81648998260499,0.0
278,0.4381694883108139,-0.0028518768900539127,50.553724193573,6.673992729187011,97.14650897979736,0.0
279,0.4369487568736076,-0.004028103477321517,49.77411489486694,6.496947550773621,97.7376003265381,0.0
280,0.43511764109134676,-0.004730977176222893,48.90415143966675,6.829059660434723,100.42597599029541,0.0
281,0.43534653186798095,-0.0026857455610297225,49.7545783996582,6.567155146598816,101.6112325668335,0.0
282,0.43378246650099755,-0.0027668019465635976,49.96275968551636,5.493284642696381,100.81265506744384,0.0
283,0.4313409835100174,-0.003878953773528285,49.959706974029544,5.554945194721222,100.29359683990478,0.0
284,0.4268776558339596,-0.006666902732104014,49.357753372192384,6.089133071899414,100.71514320373535,0.0
285,0.4257332086563109,-0.005822076136246282,49.64285717010498,6.646520149707794,101.62864665985107,0.0
286,0.42474134862422935,-0.00486989375203843,49.44505529403686,6.087912106513977,101.03455238342285,0.0
287,0.4232535772025584,-0.0041785647918004005,50.092185497283936,6.329670190811157,100.79205436706543,0.0
288,0.4282128393650055,0.0022900459327502,49.548229694366455,5.661172163486481,102.2371160507202,0.0
289,0.43874172046780585,0.011944816354662135,49.280830478668214,4.884005069732666,103.71650695800778,0.0
290,0.44221320301294326,0.012317674863152153,50.036629867553714,4.20634925365448,104.85164661407468,0.0
291,0.44038209915161125,0.007320917164906815,49.43284511566162,3.905372416973114,105.04958972930908,0.0
292,0.4395809844136238,0.0032691354543203073,49.458485794067386,4.34676456451416,103.94802894592286,0.0
293,0.43424024283885954,-0.004441986343590493,50.050671863555905,4.458486092090607,103.61581344604492,0.0
294,0.43183690309524525,-0.006665127060841715,49.55677661895752,4.601953744888306,102.94373836517335,0.0
295,0.4321039423346519,-0.00452706963405939,49.78388242721557,5.334554493427277,103.38468322753904,0.0
296,0.4308450624346733,-0.0038335511344484525,50.449938678741454,5.482295513153076,105.4028434753418,0.0
297,0.4285180278122425,-0.004097742820158552,48.75640993118286,5.551892566680908,106.5080192565918,0.0
298,0.4269158110022545,-0.003813500981777857,50.009768104553224,5.221001386642456,106.89528045654296,0.0
299,0.4244743175804614,-0.004909859481267586,49.612332057952884,4.6642248153686525,104.79617843627929,0.0
300,0.4209646873176098,-0.006533031119033653,49.6605619430542,3.7344322681427,104.7737823486328,0.03268883451819417
301,0.41894284188747405,-0.006230817630421322,50.13553113937378,4.351648569107056,104.89510345458984,0.0
302,0.4181035757064818,-0.0047903480532113,49.10866909027099,4.792429757118225,104.89510345458984,0.0
303,0.4181035757064818,-0.00288844902534033,49.510378742218016,4.911477422714233,104.49722499847412,0.0
304,0.41692099645733827,-0.0024230790673754497,50.238705730438234,4.6959708571434025,102.8819772720337,0.0
305,0.416768405586481,-0.0014040129171916675,49.64163608551026,3.952380955219269,102.28878288269043,0.0
306,0.4161580316722392,-0.0013588038615125325,49.31807117462158,3.802197813987732,101.33063163757325,0.0
307,0.4171117298305035,0.00010115912955371003,50.02625169754028,4.202075886726379,100.80266189575195,0.0
308,0.4313409835100174,0.013239046093076426,50.12393178939819,4.560439610481263,101.93466320037842,0.0
309,0.4398098722100257,0.01785436393693086,48.761294269561766,4.079975700378418,102.0408172607422,0.0
310,0.4356135703623295,0.009391413989942468,49.67948741912842,4.450549530982972,102.84600105285645,0.0
311,0.43343913704156867,0.00374288142193104,50.28205165863037,4.8192920088768005,103.09559993743896,0.0
312,0.43427838683128356,0.0009701578484964449,49.63858337402344,4.744810938835144,101.99125328063965,0.0
313,0.4305780202150345,-0.00460213521728287,49.38583641052246,4.600732803344727,101.05279159545898,0.0
314,0.42714469507336617,-0.00640585799701507,49.134309959411624,4.670940279960632,102.64625625610351,0.0
315,0.42470320016145696,-0.006393775925971517,50.36446886062622,4.934065878391266,104.04096260070801,0.0
316,0.42306283488869656,-0.006010535161476537,49.82112331390381,5.316239261627198,103.7659194946289,0.0
317,0.41985839530825614,-0.006713986559770955,49.17460308074951,5.542124557495117,103.57776641845703,0.0
318,0.4175695076584815,-0.0062028864165767595,49.636141777038574,5.950549566745758,102.98697471618652,0.0
319,0.41699729189276685,-0.0043998173670842826,50.081807136535645,5.905372405052185,103.570316696167,0.0
320,0.42451246753335,0.004279749190027332,49.25396814346313,5.953602027893067,105.10042572021484,0.0
321,0.43134098276495936,0.010120439482852772,49.53846139907837,6.423687279224396,105.91998176574707,0.0
322,0.4284035861492157,0.005445175815839277,49.44810724258423,6.565934002399445,102.35116386413576,0.0
323,0.4239020958542823,-0.0005436831268980105,49.562271213531496,5.606837749481201,99.21739501953125,0.0
324,0.42130801677703855,-0.004200246225809638,49.999389457702634,4.903541088104248,98.36697998046876,0.0
325,0.4198584005236626,-0.005795729230157988,49.862027168273926,5.233821761608124,98.42980194091798,0.0
326,0.41970580965280535,-0.004129436120274432,49.452991580963136,5.196581220626831,99.32336750030518,0.0
327,0.4199728436768055,-0.0017666800791402756,49.74908447265625,5.6422466278076175,99.3377456665039,0.0
328,0.41787469759583473,-0.0024917167989769477,49.835165119171144,6.0036629915237425,99.3377456665039,0.0
329,0.4129154302179813,-0.006088773917872412,49.878510093688966,5.865689992904663,99.53642196655274,0.0
330,0.41009247079491606,-0.007053430867381342,49.62026882171631,6.184981620311737,100.79641609191894,0.0
331,0.40700247660279276,-0.007902744517195923,49.18803386688232,6.910866737365723,101.2983299255371,0.0
332,0.40452284216880796,-0.007538612931966735,49.56837644577026,6.971916937828064,100.38101387023926,0.0
333,0.40334025844931604,-0.005684697651304262,50.115994930267334,7.119047605991364,99.52706756591797,0.0
334,0.40021209940314284,-0.00605010763974855,49.629426097869874,7.289377212524414,98.20204162597658,0.0
335,0.39693135768175125,-0.0067639213753863696,49.894383335113524,6.85958468914032,97.22739334106446,0.0
336,0.3959395132958889,-0.005343605496454935,49.25579957962036,6.447496819496155,97.41324119567872,0.0
337,0.3944517374038696,-0.004758910887176125,49.246642112731934,6.739926815032959,97.8793487548828,0.0
338,0.39471877142786976,-0.0025282160435380957,50.5854697227478,6.924297988414764,97.38548450469969,0.0
339,0.3966261722147465,0.00052977009181628,49.55555562973022,6.841880249977112,96.94653015136717,0.0
340,0.39399395585060115,-0.0014862818388791774,49.22771663665772,7.174603080749511,95.81821098327637,0.0
341,0.3920102626085281,-0.002768979041138615,50.340048694610594,7.995726752281189,94.91280250549316,0.0
342,0.38964506089687345,-0.004231914033880413,48.76007318496704,7.1013429164886475,94.55152854919433,0.0
343,0.38853876665234566,-0.004356922802980933,51.12332105636597,7.128205108642578,96.30192680358886,0.0
344,0.3875087767839432,-0.0037487726833205226,49.52442007064819,5.949938869476318,97.04236373901367,0.023349168151617035
345,0.3865550652146339,-0.003049448772799175,48.59706983566284,7.054945385456085,99.29779357910157,0.02765978332608936
346,0.3873561829328537,-0.00100201496825316,49.58302793502808,7.457875490188599,100.79974670410155,0.0
347,0.3860209934413433,-0.0016231294572207299,50.50549449920654,6.711233150959015,101.67803153991699,0.0
348,0.3818628564476967,-0.004665376676712135,49.84065914154053,6.471306419372558,101.41438179016112,0.0
349,0.3799554407596588,-0.005148820346221275,48.79365062713623,7.26617830991745,100.92097644805906,0.0
350,0.37923063412308694,-0.004394432657863893,49.93833932876587,7.793650805950165,99.83678092956544,0.0
351,0.3786965623497963,-0.0033855502959340296,50.008546924591066,7.180097591876984,99.22282943725585,0.0
352,0.3760643273591995,-0.004088456736644677,49.1398042678833,7.1306471824646,99.3377456665039,0.0
353,0.37419507578015326,-0.00421584483119654,49.75702056884766,7.482905924320221,100.0923059463501,0.0
354,0.37453840523958204,-0.00251920613518444,50.21245422363281,7.857142806053162,99.90911026000975,0.0
355,0.375492100417614,-0.00068540580687108,49.138583469390866,8.542124366760254,100.7477294921875,0.0
356,0.37385174036026003,-0.0014983398599724225,49.181318855285646,8.122710478305816,101.81718502044677,0.0
357,0.3730124793946743,-0.0014464148684054975,50.531135368347165,9.035408973693848,100.9251480102539,0.0
358,0.37789544463157654,0.003418748459080175,49.237484550476076,9.128205370903014,100.86828289031982,0.0
359,0.3807184100151062,0.005105478974292003,49.070817947387695,8.365690207481384,100.28639221191405,0.0
360,0.3806802585721016,0.0040030270291026146,50.25396862030029,9.058608174324036,100.59945564270019,0.0
361,0.384189885854721,0.006018201250117225,49.501220893859866,8.479853510856628,101.88989429473878,0.0
362,0.3819772958755493,0.0016513972092070499,49.82417583465576,8.476801013946533,102.51620826721191,0.0
363,0.3799554407596588,-0.001449835571111135,49.246031665802,8.072039222717285,101.86472129821777,0.0
364,0.37934507727622985,-0.0020838138501858027,49.6013427734375,6.757020735740662,100.00849361419678,0.0
365,0.3772850781679153,-0.003700218157609865,50.032967281341556,7.438949882984161,99.12363910675049,0.0
366,0.3775139689445495,-0.00240938834613184,49.64896221160889,7.8925518035888675,97.86836547851564,0.0
367,0.377971750497818,-0.0008070159561611425,49.63736295700073,7.531135320663452,96.93056354522705,0.0
368,0.37488173693418503,-0.00308286413783203,49.856532669067384,7.6159950494766235,97.24568843841553,0.0
369,0.3727072924375534,-0.003989375918172248,49.89743595123291,7.887667655944824,98.66046409606935,0.0
370,0.3731650739908218,-0.0024627525184768577,49.62515277862549,7.372405302524567,100.55380764007569,0.0
371,0.3738517463207245,-0.0010805337180499425,49.22954807281494,7.538461327552795,102.08209953308105,0.0
372,0.3746909961104393,0.000552899705508015,49.44688653945923,7.986569023132324,101.76751804351807,0.0
373,0.37633136659860605,0.00231588547758287,49.52625160217285,7.873626387119293,101.03997592926025,0.0
374,0.37312692031264305,-0.0011523198903887301,50.9072039604187,7.819291782379151,100.84036712646483,0.0
375,0.37137211486697197,-0.0026796967140398525,49.487179374694826,7.772283458709717,100.73886203765869,0.0
376,0.3727072924375534,-0.001045519539547935,48.18925542831421,7.096458911895752,99.63711929321289,0.0
377,0.37301248013973237,-0.0005541382808587376,50.23260049819946,7.473748588562012,99.25153617858886,0.0
378,0.37415692284703256,0.0011227271665120075,50.72405376434326,7.802197992801666,99.3377456665039,0.0
379,0.3804132238030434,0.0069746702210977205,49.49511613845825,7.580585980415345,99.68542919158935,0.0
380,0.387546918541193,0.011669865157455155,48.91147747039795,8.84981701374054,102.46937808990478,0.0
381,0.3944135881960392,0.014758167951367742,49.865690040588376,8.776557159423827,103.61032257080078,0.0
382,0.3966261774301529,0.012299932900350488,50.2527473449707,8.679487466812134,101.75686836242676,0.0
383,0.3914380341768265,0.00292906492541073,49.895604610443115,8.278388404846192,99.81979675292969,0.0
384,0.3893780216574669,-0.0017770759412087205,49.1697193145752,8.241758024692535,98.80054969787598,0.0
385,0.38708914294838903,-0.004935887258034137,49.08180694580078,7.576922869682312,99.08591651916504,0.0
386,0.3852198854088783,-0.005865639366675113,49.50366315841675,7.6581196784973145,97.48518676757811,0.0
387,0.3828928478062153,-0.005701498012058385,50.206348991394044,7.55921858549118,96.7741928100586,0.0
388,0.38167211785912514,-0.004533864179393227,50.402930641174315,7.84065934419632,97.54891624450684,0.0
389,0.3814813792705536,-0.002965664013754525,48.88034191131592,7.943833708763123,98.42192420959472,0.0
390,0.3804513707756996,-0.0025673408497822875,49.638583469390866,8.103784990310668,100.84346046447754,0.0
391,0.3789635978639126,-0.0027819131384603174,49.170329570770264,7.887667655944824,102.16881599426269,0.0
392,0.3769035935401916,-0.0035774361691437175,49.920024394989014,7.371184301376343,102.25386390686035,0.0
393,0.3777428597211837,-0.001754704683844415,49.81807088851929,8.014652013778687,100.59332542419433,0.0
394,0.37633136659860605,-0.00232078823028128,50.32051296234131,7.746031701564789,99.79652690887451,0.0
395,0.3741187803447247,-0.0033092199504607747,49.35470085144043,8.460317611694336,99.98060455322265,0.0
396,0.3738898940384388,-0.00238788423739602,48.9835165977478,7.692307472229004,101.01867637634277,0.0
397,0.3725928492844105,-0.0028269854024983525,49.92735052108765,7.647740995883941,100.16618843078612,0.0
398,0.3719443306326866,-0.00241737968171942,49.963980770111085,6.926129353046417,99.58349838256837,0.0
399,0.37049471139907836,-0.002694615302607373,49.019536113739015,4.8693530559539795,98.66433792114259,0.0
400,0.36900692656636236,-0.003121187689248425,50.30830240249634,4.625152683258056,98.00466442108154,0.0
401,0.3688924834132194,-0.00220911396027073,49.94627599716186,4.884005069732666,96.49329853057861,0.0
402,0.3672139726579189,-0.0028434875828679098,49.04029312133789,4.8498170375823975,97.66734008789062,0.0
403,0.3662221133708954,-0.0027510645857545873,49.77655687332153,5.103785276412964,98.35317459106446,0.0
404,0.3651158079504967,-0.00272712969745038,50.64468870162964,6.252747356891632,99.0393611907959,0.0
405,0.36481062024831773,-0.002035046544915458,50.07509136199951,5.0378512144088745,100.11514835357666,0.0
406,0.3662221133708954,3.1121286690439525e-05,48.724664306640626,6.351037871837616,99.8029155731201,0.0
407,0.3645435944199562,-0.0011494888480228674,49.45970687866211,6.428571462631226,100.61602287292479,0.0
408,0.3622547030448913,-0.002752642970881375,49.54761896133423,6.53662999868393,100.8513229370117,0.0
409,0.3627124845981598,-0.0016370986151741326,49.954212474822995,6.475579965114593,100.64054794311524,0.0
410,0.35966063588857644,-0.003977960423799177,50.56288146972656,6.6782662034034725,102.35297393798828,0.0
411,0.3585924804210663,-0.003718782885698555,49.401099014282224,6.703296780586243,101.35053615570067,0.0
412,0.356570640951395,-0.004143535747425588,48.98046398162842,6.912087976932526,99.92533454895019,0.0
413,0.3565706416964531,-0.0028438131732400024,49.89133100509643,6.713064646720886,99.58925170898438,0.0
414,0.3555406332015991,-0.00255466302041891,50.57264947891235,7.148351562023163,99.4489040374756,0.0
415,0.3555406332015991,-0.00141806489555159,49.32051267623901,7.4493284821510315,99.76831188201905,0.0
416,0.35420545712113377,-0.0019941162143367725,48.82356510162354,7.179487085342407,101.2243709564209,0.0
417,0.3524887859821319,-0.00277709477813909,49.735042572021484,7.209401714801788,101.82449378967286,0.0
418,0.3524887859821319,-0.00196474591793952,50.611110877990725,7.350427150726318,101.9541244506836,0.0
419,0.3529847159981727,-0.0008317614620864074,50.04395608901977,7.350427150726318,101.9541244506836,0.0
420,0.3541673153638839,0.0007277663193235125,49.818070793151854,7.350427150726318,101.9541244506836,0.0
421,0.35271767675876614,-0.00044576086074811256,49.650183010101316,7.493284440040588,100.68394355773925,0.0
422,0.3509628474712372,-0.001886150098289315,48.89621477127075,7.306471347808838,99.5544563293457,0.0
423,0.35351879447698586,0.0007528119811468,50.70634937286377,7.233211278915405,98.70700969696044,0.0
424,0.3551210083067417,0.00201497280213511,49.79853467941284,7.25885226726532,100.14473686218261,0.0
425,0.35916471183300014,0.00544233022956173,48.03479824066162,7.169108617305755,102.36199798583984,0.0
426,0.36538285166025164,0.009928779164329129,50.19108657836914,8.252747440338135,103.54652061462403,0.0
427,0.36759545803070065,0.009115240781102292,49.8785101890564,7.534798431396484,102.76218910217285,0.0
428,0.3686635971069335,0.00698194052092727,49.77899904251099,7.273504245281219,103.20156536102294,0.0
429,0.369426554441452,0.004789415700361092,49.77472524642944,7.782662045955658,102.30506706237794,0.0
430,0.37160100117325784,0.004251794348237992,49.41086664199829,7.22588529586792,100.68138961791992,0.0
431,0.37511062547564505,0.005591037555132008,49.24908418655396,7.113553166389465,101.42674655914307,0.0
432,0.37804804742336273,0.00650303688598793,50.5842490196228,7.516483402252197,101.0230224609375,0.0
433,0.3790780432522297,0.005428591370582538,49.31929159164429,7.594627380371094,101.12376613616942,0.0
434,0.38312173932790755,0.007128973456565245,49.612332057952884,7.363247740268707,102.54409580230713,0.0
435,0.38468581512570377,0.0059188560815527595,50.194749641418454,8.059828889369964,102.46481246948242,0.0
436,0.38171026557683946,0.0009505813293798776,48.99633703231812,7.5335773229599,99.65823593139649,0.0
437,0.3804513707756996,-0.0011528147859734955,49.48107442855835,6.780830252170563,100.8028169631958,0.0
438,0.3799554407596588,-0.0019780802947934177,50.354700756073,7.28876678943634,102.32602157592774,0.0
439,0.38281655460596087,0.00083344244485485,49.4694748878479,6.619047701358795,103.04879264831543,0.0
440,0.3856013625860214,0.0036026283050886753,48.753357601165774,6.42857152223587,102.88333415985107,0.0
441,0.3860591351985931,0.0035107212373986277,50.7753360748291,7.280830109119416,100.82653503417968,0.0
442,0.38426618650555605,0.0008676400058902449,49.84249105453491,7.545787334442139,95.22334384918213,0.0
443,0.3814813792705536,-0.00242524856585073,48.902319717407224,7.512209892272949,95.04972839355469,0.0
444,0.3803750738501549,-0.003464524296577965,49.988400268554685,7.905982792377472,94.87156009674072,0.0
445,0.3826639585196972,-0.0006355874927066475,49.752747249603274,8.378510594367981,94.83801841735838,0.0
446,0.3821680352091789,-0.0004988160152834085,49.530525016784665,8.10134310722351,96.26142997741698,0.0
447,0.3786965623497963,-0.0029859153088181703,50.3229546546936,8.41025652885437,98.00246562957764,0.0
448,0.3764076635241508,-0.00420470075332553,49.57020769119263,9.28632457256317,98.95301380157471,0.0
449,0.3743095189332962,-0.005195493192877565,48.88461532592773,7.8479852199554445,100.91170673370361,0.0
450,0.37339396476745607,-0.004596067580860048,50.068375968933104,8.33943839073181,100.41261978149414,0.0
451,0.3698461927473545,-0.005942395993042681,49.9670331954956,8.094017279148101,100.123561668396,0.0
452,0.3668706372380256,-0.006461649772245377,49.60256414413452,7.61904764175415,101.26460762023926,0.0
453,0.3662221133708954,-0.004901282314676745,49.195970726013186,7.773504149913788,103.37356529235839,0.0
454,0.36809138208627695,-0.0013767982643912175,49.189255237579346,7.6678876876831055,103.44827270507812,0.0
455,0.375721000880003,0.00677343594143162,50.370573902130126,7.723443114757538,103.44827270507812,0.0
456,0.38300729393959043,0.012422678875736842,49.434065914154054,6.393162488937378,103.8974552154541,0.0
457,0.38537247627973553,0.011585513665340798,49.37423667907715,4.809523892402649,104.61170921325686,0.0
458,0.3860591351985931,0.008373188669793263,50.503052711486816,4.317460298538208,104.57374229431153,0.0
459,0.38636432290077205,0.0048660406202543,49.54761905670166,4.126984119415283,104.16666412353516,0.0
460,0.3875850737094879,0.0028853521595010047,49.2313796043396,4.154456663131714,104.13963146209717,0.0
461,0.3847621068358421,-0.0012473274618059514,49.303418922424314,4.676434755325317,103.71658706665042,0.0
462,0.38205359503626823,-0.0037262307945638345,50.694139099121095,4.953601980209351,103.54199981689453,0.0
463,0.38052766770124435,-0.004330817924346715,49.77350425720215,5.2979243993759155,103.71743774414062,0.0
464,0.38006988614797593,-0.003599322205991432,49.90781412124634,5.285103881359101,105.59379978179932,0.0
465,0.3817484132945538,-0.00066430643637429,48.65079374313355,5.448718106746673,106.0868019104004,0.0
466,0.38506729230284686,0.0033613815030548075,48.98412714004517,7.271062445640564,105.08581924438477,0.0
467,0.39105655029416087,0.008420761616434852,50.269230937957765,5.164224767684937,103.25759353637696,0.0
468,0.3983046978712082,0.012957022688351522,50.3852258682251,4.755189228057861,101.00053443908692,0.0
469,0.40257730036973954,0.013081777677871245,48.80097675323486,4.779609358310699,98.90259704589843,0.0
470,0.4026154451072216,0.008721758122555857,49.65628843307495,4.914529931545258,98.34266815185546,0.0
471,0.40025024786591523,0.002691545144625665,50.40354089736938,5.0781442523002625,97.78702526092529,0.0
472,0.3975798815488815,-0.002206422742165105,49.10622682571411,5.456654608249664,98.68481063842775,0.0
473,0.3959776610136032,-0.00420228371513071,49.5683762550354,5.55921870470047,98.99215621948242,0.0
474,0.394375441968441,-0.004675170697737432,50.261905097961424,6.604395532608033,98.43344440460204,0.0
475,0.39277321994304654,-0.004407827754039267,48.82600736618042,6.6349204778671265,98.16153030395509,0.0
476,0.3899121001362801,-0.005256603937596035,49.97313795089722,6.501831424236298,98.11937713623048,0.0
477,0.38762322142720224,-0.005479188298340843,50.0299147605896,7.021367561817169,98.11937713623048,0.0
478,0.3875087760388851,-0.0037605808291118147,49.05799751281738,8.17582392692566,98.11937713623048,0.0
479,0.38510544225573534,-0.0044047942210454025,49.58363857269287,6.840048670768738,98.31319427490236,0.0
480,0.3845332264900207,-0.003210805135313375,50.141635990142824,6.962759459018708,99.02243824005127,0.0
481,0.3837702572345733,-0.0025136536074568975,51.4017092704773,7.0329670906066895,99.25558471679688,0.032868443429470026
482,0.3858302570879459,0.0003732272773049825,46.3290599822998,7.0329670906066895,99.25558471679688,0.02550447583198546
483,0.3935361810028553,0.007734011916909325,50.69230756759644,7.0329670906066895,99.25558471679688,0.00574748739600181
484,0.40395062491297723,0.015603326167911241,49.7539680480957,6.891941261291504,99.32336750030518,0.0
485,0.4060106210410595,0.013385775149799833,49.37423677444458,5.0427350997924805,75.80732345581055,0.0
486,0.4024247035384178,0.0058245797292328875,50.23992662429809,3.9261294305324554,70.88532390594483,0.0
487,0.3986861743032932,-0.0011351888988428975,49.775946044921874,4.273504257202148,87.1459732055664,0.0
488,0.39525285437703134,-0.006027902965433855,49.35103797912598,4.051282048225403,89.76791038513184,0.0
489,0.395710626989603,-0.004829897440504233,50.08913326263428,4.003052628040313,98.30028839111328,0.0
490,0.39616839960217476,-0.002487664389991505,49.33760695457458,5.3626374244689945,102.08049049377442,0.023349167965352517
491,0.3918195232748985,-0.00475262609543274,50.59218578338623,15.36019515991211,105.82010650634766,0.0
492,0.3962065503001213,0.00124365823066909,49.231990337371826,17.118436813354492,104.56626033782959,0.0
493,0.41051210090518,0.014130141353234593,49.7313796043396,9.23748470544815,104.3519968032837,0.0
494,0.418408764898777,0.018003208050504284,49.31807107925415,4.915751099586487,103.07235412597656,0.0
495,0.4175313636660575,0.012765971175394903,49.27228307723999,5.362637519836426,103.15851135253904,0.0
496,0.4147846892476082,0.005587345163803497,50.38034172058106,6.805860877037048,104.44803485870361,0.0
497,0.4131443127989769,-0.00017581079373484503,48.89743585586548,5.672161185741425,105.55437774658203,0.0
498,0.41470839232206347,-0.0007643104334419625,49.59890127182007,5.658119797706604,105.94379234313965,0.0
499,0.4160435885190963,0.0004905954720015725,49.685592079162596,5.587301731109619,103.21495304107665,0.0
500,0.415395064651966,0.00042535698920571923,50.04761896133423,5.2838828563690186,99.67973403930664,0.01975698824971913
501,0.41787469685077666,0.00285031184903341,49.52625160217285,5.05494499206543,99.00990295410156,0.0
502,0.4334772787988186,0.01636171310674395,48.92735013961792,5.05494499206543,99.00990295410156,0.0
503,0.46330912262201307,0.03917106278240676,49.68498153686524,5.3754578828811646,99.33938598632812,0.029455873370170572
504,0.4805520839989185,0.0449228841811418,50.14590940475464,5.238095337152481,99.96914043426513,0.0
505,0.4763557858765125,0.027821464883163522,49.57692346572876,3.4676434993743896,100.25062561035156,0.0
506,0.46739097461104395,0.007816738396650128,49.81807069778442,3.4676434993743896,100.25062561035156,0.0
507,0.4625461556017399,-0.005150842620059793,49.05494508743286,3.4676434993743896,100.25062561035156,0.0
508,0.46025726944208145,-0.009949799557216418,49.71001195907593,3.4676434993743896,100.25062561035156,0.0
509,0.45857875123620034,-0.008741681813262344,50.07203912734985,2.493284583091736,100.48991584777832,0.0
510,0.4565568983554839,-0.0062569240690208555,49.8540901184082,2.568986654281616,80.65680885314941,0.0
511,0.45575579032301894,-0.004098371980944602,49.489010906219484,3.6361416578292847,81.6260772705078,0.0
512,0.4546876534819602,-0.0032148370461072273,49.653846168518065,3.8339438438415527,88.52483406066895,0.0
513,0.45228431522846224,-0.004111551522510075,48.738094902038576,4.420024394989014,92.80742645263672,0.0
514,0.44850764200091364,-0.006080966501031022,50.52503061294556,4.1739926636219025,93.64660148620605,0.0
515,0.445799121260643,-0.006691585399676052,50.67704496383667,3.66300368309021,95.3895034790039,0.0
516,0.44583726972341536,-0.004502674273680843,49.29548215866089,3.901709407567978,96.14086132049559,0.0
517,0.4460280194878578,-0.0025840483227511377,49.059218883514404,4.001221001148224,83.31684608459472,0.0
518,0.4413358002901077,-0.005272279883502,50.048840045928955,4.073260271549225,59.367661476135254,0.0
519,0.4383983790874481,-0.006061118305660732,49.80097675323486,4.307692527770996,57.87134342193603,0.0
520,0.43633838668465613,-0.0062302923877723005,49.595238018035886,4.648351848125458,77.9861961364746,0.0
521,0.435041344165802,-0.0055086334061342675,49.44810733795166,5.0537241220474245,94.67166976928712,0.0
522,0.4356517195701599,-0.00265503441332834,49.41575059890747,5.14957264661789,101.26677837371827,0.0
523,0.44186986684799195,0.004709156963508527,50.040293025970456,8.588522696495057,100.94971618652343,0.14979388527572152
524,0.45304727777838705,0.014248246280476403,33.65323553234339,20.757020950317383,98.28009796142578,0.2708503354340791
525,0.49741355702281,0.05206632483750577,44.61538481712341,20.757020950317383,98.28009796142578,0.14709975440055129
526,0.5925550073385238,0.12528835590928789,67.97619028091431,31.753356838226317,98.20369033813476,0.0014368718490004526
527,0.6598483204841614,0.15369023680686947,52.64590930938721,32.33211135864258,98.19966888427734,0.0
528,0.6951734945178032,0.14013325143605465,48.66910877227783,32.33211135864258,98.19966888427734,0.0
529,0.7007049918174744,0.09536420889198774,48.86385831832886,33.0500602722168,98.18361053466796,0.0
530,0.699751292169094,0.04860862689092747,53.227716732025144,35.92185592651367,98.11937713623048,0.0
531,0.6955549612641334,0.013673828647006258,47.57631254196167,35.92185592651367,98.11937713623048,0.0
532,0.6910153448581695,-0.003405060944714904,58.02197799682617,15.09035415649414,95.06231632232667,0.01149497479200362
533,0.6909390613436699,-0.005110946858985672,43.69658098220825,10.671550750732422,94.41384887695312,0.0
534,0.7369838580489159,0.03878690213896329,60.55006113052368,10.671550750732422,94.41384887695312,0.026402518898248673
535,0.753924562380864,0.049068723733608495,68.93209398709811,10.671550750732422,94.41384887695312,0.8134905076943911
